-3300 -3300 -3300 -3300 -3300 -3300 -3300 -3300 -3300 -3300 -3300 -3300 -3300 -3300 -3300 -3300 -3300 -3300 -3300 -3300 -3300 -3300 -3300 -3300 -3300 -3300 -3300 -3300 -3300 -3300 -3300 -3300 -3300 -3300 -3300 -3300 -3300 -3300 -3300 -3300 -3300 -3300 -3300 -3300 -3300 -3300 -3300 -3300 -3300 -3300 -3300 -3300 -3300 -3300 -3300 -3300 -3300 -3300 -3300 -3300 -3300 -3300 -3300 -3300 -3300 -3300 -3300 -3300 -3300 -3300 -3300 -3300 -3300 -3300 -3300 -3300 -3300 -3300 -3300 -3300 -3300 -3300 -3300 -3300 -3300 -3300 -3300 
-3300 -3300 -3300 -3300 -3300 -3300 -3300 -3300 -3300 -3300 -3300 -3300 -3300 -3300 -3300 -3300 -3300 -3300 -3300 -3300 -3300 -3300 -3300 -3300 -3300 -3300 -3300 -3300 -3300 -3300 -3300 -3300 -3300 -3300 -3300 -3300 -3300 -3300 -3300 -3300 -3300 -3300 -3300 -3300 -3300 -3300 -3300 -3300 -3300 -3300 -3300 -3300 -3300 -3300 -3300 -3300 -3300 -3300 -3300 -3300 -3300 -3300 -3300 -3300 -3300 -3300 -3300 -3300 -3300 -3300 -3300 -3300 -3300 -3300 -3300 -3300 -3300 -3300 -3300 -3300 -3300 -3300 -3300 -3300 -3300 -3300 -3300 
-3300 -3300 -3300 -3300 -3300 -3300 -3300 -3300 -3300 -3300 -3300 -3300 -3300 -3300 -3300 -3300 -3300 -3300 -3300 -3300 -3300 -3300 -3300 -3300 -3300 -3300 -3300 -3300 -3300 -3300 -3300 -3300 -3300 -3300 -3300 -3300 -3300 -3300 -3300 -3300 -3300 -3300 -3300 -3300 -3300 -3300 -3300 -3300 -3300 -3300 -3300 -3300 -3300 -3300 -3300 -3300 -3300 -3300 -3300 -3300 -3300 -3300 -3300 -3300 -3300 -3300 -3300 -3300 -3300 -3300 -3300 -3300 -3300 -3300 -3300 -3300 -3300 -3300 -3300 -3300 -3300 -3300 -3300 -3300 -3300 -3300 -3300 
-3300 -3300 -3300 -3300 -3300 -3300 -3300 -3300 -3300 -3300 -3300 -3300 -3300 -3300 -3300 -3300 -3300 -3300 -3300 -3300 -3300 -3300 -3300 -3300 -3300 -3300 -3300 -3300 -3300 -3300 -3300 -3300 -3300 -3300 -3300 -3300 -3300 -3300 -3300 -3300 -3300 -3300 -3300 -3300 -3300 -3300 -3300 -3300 -3300 -3300 -3300 -3300 -3300 -3300 -3300 -3300 -3300 -3300 -3300 -3300 -3300 -3300 -3300 -3300 -3300 -3300 -3300 -3300 -3300 -3300 -3300 -3300 -3300 -3300 -3300 -3300 -3300 -3300 -3300 -3300 -3300 -3300 -3300 -3300 -3300 -3300 -3300 
-1499.1394 -1830.368 -2151.526 -2546.8047 -2536.2305 -2525.8574 -2515.686 -2505.4138 -2495.2422 -2485.4736 -2475.7048 -2466.0369 -2456.4697 -2447.2046 -2437.5366 -2428.2715 -2419.0063 -2409.7412 -2125.0396 -1629.4556 -1112.6221 -617.8436 -81.57349 503.33862 1007.3822 1503.8727 1843.5608 2026.3458 2146.289 2114.6667 2073.6785 2074.3835 1947.8943 1785.3516 1457.2449 1148.9777 745.6421 326.69678 -35.751343 -451.5747 -804.25415 -1145.05 -1574.8718 -2118.0908 -2451.0315 -2440.9607 -2430.9905 -2421.0205 -2411.0503 -2401.5837 -2391.9158 -2382.4492 -2373.285 -2364.4226 -2355.258 -2346.4966 -2337.9363 -2274.1882 -1774.7772 -1221.0846 -757.0221 -262.64648 229.61426 843.32886 1436.8011 1956.958 2405.0078 2739.862 2935.0342 3008.4502 3073.9104 3106.5398 3125.2715 3065.451 2876.1199 2712.7715 2404.0007 2003.7872 1541.8396 1083.5175 729.7302 348.14758 -89.12659 -534.1553 -1045.8527 -1506.7932 -1893.7134 
-3300 -3300 -3300 -3300 -3300 -3300 -3300 -3300 -3300 -3300 -3300 -3300 -3300 -3300 -3300 -3300 -3300 -3300 -3300 -3300 -3300 -3300 -3300 -3300 -3300 -3300 -3300 -3300 -3300 -3300 -3300 -3300 -3300 -3300 -3300 -3300 -3300 -3300 -3300 -3300 -3300 -3300 -3300 -3300 -3300 -3300 -3300 -3300 -3300 -3300 -3300 -3300 -3300 -3300 -3300 -3300 -3300 -3300 -3300 -3300 -3300 -3300 -3300 -3300 -3300 -3300 -3300 -3300 -3300 -3300 -3300 -3300 -3300 -3300 -3300 -3300 -3300 -3300 -3300 -3300 -3300 -3300 -3300 -3300 -3300 -3300 -3300 
-3300 -3300 -3300 -3300 -3300 -3300 -3300 -3300 -3300 -3300 -3300 -3300 -3300 -3300 -3300 -3300 -3300 -3300 -3300 -3300 -3300 -3300 -3300 -3300 -3300 -3300 -3300 -3300 -3300 -3300 -3300 -3300 -3300 -3300 -3300 -3300 -3300 -3300 -3300 -3300 -3300 -3300 -3300 -3300 -3300 -3300 -3300 -3300 -3300 -3300 -3300 -3300 -3300 -3300 -3300 -3300 -3300 -3300 -3300 -3300 -3300 -3300 -3300 -3300 -3300 -3300 -3300 -3300 -3300 -3300 -3300 -3300 -3300 -3300 -3300 -3300 -3300 -3300 -3300 -3300 -3300 -3300 -3300 -3300 -3300 -3300 -3300 
-3300 -3300 -3300 -3300 -3300 -3300 -3300 -3300 -3300 -3300 -3300 -3300 -3300 -3300 -3300 -3300 -3300 -3300 -3300 -3300 -3300 -3300 -3300 -3300 -3300 -3300 -3300 -3300 -3300 -3300 -3300 -3300 -3300 -3300 -3300 -3300 -3300 -3300 -3300 -3300 -3300 -3300 -3300 -3300 -3300 -3300 -3300 -3300 -3300 -3300 -3300 -3300 -3300 -3300 -3300 -3300 -3300 -3300 -3300 -3300 -3300 -3300 -3300 -3300 -3300 -3300 -3300 -3300 -3300 -3300 -3300 -3300 -3300 -3300 -3300 -3300 -3300 -3300 -3300 -3300 -3300 -3300 -3300 -3300 -3300 -3300 -3300 

-3300 -3300 -3300 -3300 -3300 -3300 -3300 -3300 -3300 -3300 -3300 -3300 -3300 -3300 -3300 -3300 -3300 -3300 -3300 -3300 -3300 -3300 -3300 -3300 -3300 -3300 -3300 -3300 -3300 -3300 -3300 -3300 -3300 -3300 -3300 -3300 -3300 -3300 -3300 -3300 -3300 -3300 -3300 -3300 -3300 -3300 -3300 -3300 -3300 -3300 -3300 -3300 -3300 -3300 -3300 -3300 -3300 -3300 -3300 -3300 -3300 -3300 -3300 -3300 -3300 -3300 -3300 -3300 -3300 -3300 -3300 -3300 -3300 -3300 -3300 -3300 -3300 -3300 -3300 -3300 -3300 -3300 -3300 -3300 -3300 -3300 -3300 -3300 -3300 -3300 -3300 -3300 -3300 -3300 -3300 -3300 -3300 -3300 -3300 -3300 
-3300 -3300 -3300 -3300 -3300 -3300 -3300 -3300 -3300 -3300 -3300 -3300 -3300 -3300 -3300 -3300 -3300 -3300 -3300 -3300 -3300 -3300 -3300 -3300 -3300 -3300 -3300 -3300 -3300 -3300 -3300 -3300 -3300 -3300 -3300 -3300 -3300 -3300 -3300 -3300 -3300 -3300 -3300 -3300 -3300 -3300 -3300 -3300 -3300 -3300 -3300 -3300 -3300 -3300 -3300 -3300 -3300 -3300 -3300 -3300 -3300 -3300 -3300 -3300 -3300 -3300 -3300 -3300 -3300 -3300 -3300 -3300 -3300 -3300 -3300 -3300 -3300 -3300 -3300 -3300 -3300 -3300 -3300 -3300 -3300 -3300 -3300 -3300 -3300 -3300 -3300 -3300 -3300 -3300 -3300 -3300 -3300 -3300 -3300 -3300 
-3300 -3300 -3300 -3300 -3300 -3300 -3300 -3300 -3300 -3300 -3300 -3300 -3300 -3300 -3300 -3300 -3300 -3300 -3300 -3300 -3300 -3300 -3300 -3300 -3300 -3300 -3300 -3300 -3300 -3300 -3300 -3300 -3300 -3300 -3300 -3300 -3300 -3300 -3300 -3300 -3300 -3300 -3300 -3300 -3300 -3300 -3300 -3300 -3300 -3300 -3300 -3300 -3300 -3300 -3300 -3300 -3300 -3300 -3300 -3300 -3300 -3300 -3300 -3300 -3300 -3300 -3300 -3300 -3300 -3300 -3300 -3300 -3300 -3300 -3300 -3300 -3300 -3300 -3300 -3300 -3300 -3300 -3300 -3300 -3300 -3300 -3300 -3300 -3300 -3300 -3300 -3300 -3300 -3300 -3300 -3300 -3300 -3300 -3300 -3300 
-3300 -3300 -3300 -3300 -3300 -3300 -3300 -3300 -3300 -3300 -3300 -3300 -3300 -3300 -3300 -3300 -3300 -3300 -3300 -3300 -3300 -3300 -3300 -3300 -3300 -3300 -3300 -3300 -3300 -3300 -3300 -3300 -3300 -3300 -3300 -3300 -3300 -3300 -3300 -3300 -3300 -3300 -3300 -3300 -3300 -3300 -3300 -3300 -3300 -3300 -3300 -3300 -3300 -3300 -3300 -3300 -3300 -3300 -3300 -3300 -3300 -3300 -3300 -3300 -3300 -3300 -3300 -3300 -3300 -3300 -3300 -3300 -3300 -3300 -3300 -3300 -3300 -3300 -3300 -3300 -3300 -3300 -3300 -3300 -3300 -3300 -3300 -3300 -3300 -3300 -3300 -3300 -3300 -3300 -3300 -3300 -3300 -3300 -3300 -3300 
-2208.8286 -2404.303 -2439.7522 -2429.5806 -2419.812 -2410.0432 -2400.5767 -2390.5059 -2381.0393 -2367.8467 -1994.0186 -1497.0245 -983.1116 -483.49915 88.82446 748.5626 1480.6091 2099.1577 2702.4993 3172.1008 3299.8992 3299.8992 3299.8992 3299.8992 3299.8992 3299.8992 3299.8992 3299.8992 3299.8992 3299.8992 3299.8992 3299.8992 3055.6824 2744.5952 2409.8418 1989.6881 1468.6249 891.4673 384.8053 38.571167 -189.63318 -359.8297 -473.0255 -503.1372 -531.13403 -572.92786 -534.5581 -470.2057 -230.41992 111.08093 467.28516 841.7175 1315.9515 1744.3634 2165.8264 2852.2522 3299.8992 3299.8992 3299.8992 3299.8992 3299.8992 3299.8992 3299.8992 3299.8992 3299.8992 3299.8992 3299.8992 3299.8992 3299.8992 3299.8992 3299.8992 3299.8992 3299.8992 3299.8992 2933.4229 2381.6436 1713.5468 1127.829 541.8091 93.759155 -340.19165 -702.33765 -1063.8794 -1287.3505 -1494.5068 -1806.7017 -1978.1067 -2171.3652 -2030.2734 -1816.9739 -1643.5547 -1312.0239 -2322.3267 -2847.821 -2835.9375 -2824.5574 -2813.0767 -2801.7974 -2790.518 -2779.4402 
-3300 -3300 -3300 -3300 -3300 -3300 -3300 -3300 -3300 -3300 -3300 -3300 -3300 -3300 -3300 -3300 -3300 -3300 -3300 -3300 -3300 -3300 -3300 -3300 -3300 -3300 -3300 -3300 -3300 -3300 -3300 -3300 -3300 -3300 -3300 -3300 -3300 -3300 -3300 -3300 -3300 -3300 -3300 -3300 -3300 -3300 -3300 -3300 -3300 -3300 -3300 -3300 -3300 -3300 -3300 -3300 -3300 -3300 -3300 -3300 -3300 -3300 -3300 -3300 -3300 -3300 -3300 -3300 -3300 -3300 -3300 -3300 -3300 -3300 -3300 -3300 -3300 -3300 -3300 -3300 -3300 -3300 -3300 -3300 -3300 -3300 -3300 -3300 -3300 -3300 -3300 -3300 -3300 -3300 -3300 -3300 -3300 -3300 -3300 -3300 
-3300 -3300 -3300 -3300 -3300 -3300 -3300 -3300 -3300 -3300 -3300 -3300 -3300 -3300 -3300 -3300 -3300 -3300 -3300 -3300 -3300 -3300 -3300 -3300 -3300 -3300 -3300 -3300 -3300 -3300 -3300 -3300 -3300 -3300 -3300 -3300 -3300 -3300 -3300 -3300 -3300 -3300 -3300 -3300 -3300 -3300 -3300 -3300 -3300 -3300 -3300 -3300 -3300 -3300 -3300 -3300 -3300 -3300 -3300 -3300 -3300 -3300 -3300 -3300 -3300 -3300 -3300 -3300 -3300 -3300 -3300 -3300 -3300 -3300 -3300 -3300 -3300 -3300 -3300 -3300 -3300 -3300 -3300 -3300 -3300 -3300 -3300 -3300 -3300 -3300 -3300 -3300 -3300 -3300 -3300 -3300 -3300 -3300 -3300 -3300 
-3300 -3300 -3300 -3300 -3300 -3300 -3300 -3300 -3300 -3300 -3300 -3300 -3300 -3300 -3300 -3300 -3300 -3300 -3300 -3300 -3300 -3300 -3300 -3300 -3300 -3300 -3300 -3300 -3300 -3300 -3300 -3300 -3300 -3300 -3300 -3300 -3300 -3300 -3300 -3300 -3300 -3300 -3300 -3300 -3300 -3300 -3300 -3300 -3300 -3300 -3300 -3300 -3300 -3300 -3300 -3300 -3300 -3300 -3300 -3300 -3300 -3300 -3300 -3300 -3300 -3300 -3300 -3300 -3300 -3300 -3300 -3300 -3300 -3300 -3300 -3300 -3300 -3300 -3300 -3300 -3300 -3300 -3300 -3300 -3300 -3300 -3300 -3300 -3300 -3300 -3300 -3300 -3300 -3300 -3300 -3300 -3300 -3300 -3300 -3300 

-3300 -3300 -3300 -3300 -3300 -3300 -3300 -3300 -3300 -3300 -3300 -3300 -3300 -3300 -3300 -3300 -3300 -3300 -3300 -3300 -3300 -3300 -3300 -3300 -3300 -3300 -3300 -3300 -3300 -3300 -3300 -3300 -3300 -3300 -3300 -3300 -3300 -3300 -3300 -3300 -3300 -3300 -3300 -3300 -3300 -3300 -3300 -3300 -3300 -3300 -3300 -3300 -3300 -3300 -3300 -3300 -3300 -3300 -3300 -3300 -3300 -3300 -3300 -3300 -3300 -3300 -3300 -3300 -3300 -3300 -3300 -3300 -3300 -3300 -3300 -3300 -3300 -3300 -3300 -3300 -3300 -3300 -3300 -3300 -3300 -3300 -3300 -3300 -3300 -3300 -3300 -3300 -3300 -3300 -3300 -3300 -3300 -3300 -3300 -3300 
-3300 -3300 -3300 -3300 -3300 -3300 -3300 -3300 -3300 -3300 -3300 -3300 -3300 -3300 -3300 -3300 -3300 -3300 -3300 -3300 -3300 -3300 -3300 -3300 -3300 -3300 -3300 -3300 -3300 -3300 -3300 -3300 -3300 -3300 -3300 -3300 -3300 -3300 -3300 -3300 -3300 -3300 -3300 -3300 -3300 -3300 -3300 -3300 -3300 -3300 -3300 -3300 -3300 -3300 -3300 -3300 -3300 -3300 -3300 -3300 -3300 -3300 -3300 -3300 -3300 -3300 -3300 -3300 -3300 -3300 -3300 -3300 -3300 -3300 -3300 -3300 -3300 -3300 -3300 -3300 -3300 -3300 -3300 -3300 -3300 -3300 -3300 -3300 -3300 -3300 -3300 -3300 -3300 -3300 -3300 -3300 -3300 -3300 -3300 -3300 
-3300 -3300 -3300 -3300 -3300 -3300 -3300 -3300 -3300 -3300 -3300 -3300 -3300 -3300 -3300 -3300 -3300 -3300 -3300 -3300 -3300 -3300 -3300 -3300 -3300 -3300 -3300 -3300 -3300 -3300 -3300 -3300 -3300 -3300 -3300 -3300 -3300 -3300 -3300 -3300 -3300 -3300 -3300 -3300 -3300 -3300 -3300 -3300 -3300 -3300 -3300 -3300 -3300 -3300 -3300 -3300 -3300 -3300 -3300 -3300 -3300 -3300 -3300 -3300 -3300 -3300 -3300 -3300 -3300 -3300 -3300 -3300 -3300 -3300 -3300 -3300 -3300 -3300 -3300 -3300 -3300 -3300 -3300 -3300 -3300 -3300 -3300 -3300 -3300 -3300 -3300 -3300 -3300 -3300 -3300 -3300 -3300 -3300 -3300 -3300 
-3300 -3300 -3300 -3300 -3300 -3300 -3300 -3300 -3300 -3300 -3300 -3300 -3300 -3300 -3300 -3300 -3300 -3300 -3300 -3300 -3300 -3300 -3300 -3300 -3300 -3300 -3300 -3300 -3300 -3300 -3300 -3300 -3300 -3300 -3300 -3300 -3300 -3300 -3300 -3300 -3300 -3300 -3300 -3300 -3300 -3300 -3300 -3300 -3300 -3300 -3300 -3300 -3300 -3300 -3300 -3300 -3300 -3300 -3300 -3300 -3300 -3300 -3300 -3300 -3300 -3300 -3300 -3300 -3300 -3300 -3300 -3300 -3300 -3300 -3300 -3300 -3300 -3300 -3300 -3300 -3300 -3300 -3300 -3300 -3300 -3300 -3300 -3300 -3300 -3300 -3300 -3300 -3300 -3300 -3300 -3300 -3300 -3300 -3300 -3300 
-2768.3623 -2757.788 -2746.8108 -2736.0352 -2725.2593 -2714.685 -2704.4128 -2693.637 -2683.3647 -2672.992 -2662.8203 -2652.649 -2642.4773 -2632.4065 -2622.3357 -2612.3657 -2602.597 -2592.7275 -2583.0596 -2573.291 -2563.623 -2553.8542 -2544.589 -2535.022 -2525.5554 -2516.1895 -2506.6223 -2497.3572 -2488.394 -2479.129 -2469.8638 -2460.8 -2451.7363 -2442.7734 -2433.7097 -2424.8474 -2345.1873 -1706.6986 -958.5388 -384.40247 71.80481 576.0498 3299.8992 3299.8992 3299.8992 3299.8992 3299.8992 3299.8992 3299.8992 3299.8992 3299.8992 3299.8992 3299.8992 3299.8992 3299.8992 3299.8992 3299.8992 3299.8992 3299.8992 3299.8992 3299.8992 3299.8992 3299.8992 3299.8992 3299.8992 3299.8992 3299.8992 3299.8992 3299.8992 3299.8992 3299.8992 3299.8992 3299.8992 3299.8992 3299.8992 3299.8992 3299.8992 3299.8992 3299.8992 3299.8992 3299.8992 3299.8992 3299.8992 3299.8992 3299.8992 3299.8992 3299.8992 3299.8992 3299.8992 3299.8992 3299.8992 3299.8992 3299.8992 3299.8992 3299.8992 3299.8992 3299.8992 3299.8992 3299.8992 3299.8992 
-3300 -3300 -3300 -3300 -3300 -3300 -3300 -3300 -3300 -3300 -3300 -3300 -3300 -3300 -3300 -3300 -3300 -3300 -3300 -3300 -3300 -3300 -3300 -3300 -3300 -3300 -3300 -3300 -3300 -3300 -3300 -3300 -3300 -3300 -3300 -3300 -3300 -3300 -3300 -3300 -3300 -3300 -3300 -3300 -3300 -3300 -3300 -3300 -3300 -3300 -3300 -3300 -3300 -3300 -3300 -3300 -3300 -3300 -3300 -3300 -3300 -3300 -3300 -3300 -3300 -3300 -3300 -3300 -3300 -3300 -3300 -3300 -3300 -3300 -3300 -3300 -3300 -3300 -3300 -3300 -3300 -3300 -3300 -3300 -3300 -3300 -3300 -3300 -3300 -3300 -3300 -3300 -3300 -3300 -3300 -3300 -3300 -3300 -3300 -3300 
-3300 -3300 -3300 -3300 -3300 -3300 -3300 -3300 -3300 -3300 -3300 -3300 -3300 -3300 -3300 -3300 -3300 -3300 -3300 -3300 -3300 -3300 -3300 -3300 -3300 -3300 -3300 -3300 -3300 -3300 -3300 -3300 -3300 -3300 -3300 -3300 -3300 -3300 -3300 -3300 -3300 -3300 -3300 -3300 -3300 -3300 -3300 -3300 -3300 -3300 -3300 -3300 -3300 -3300 -3300 -3300 -3300 -3300 -3300 -3300 -3300 -3300 -3300 -3300 -3300 -3300 -3300 -3300 -3300 -3300 -3300 -3300 -3300 -3300 -3300 -3300 -3300 -3300 -3300 -3300 -3300 -3300 -3300 -3300 -3300 -3300 -3300 -3300 -3300 -3300 -3300 -3300 -3300 -3300 -3300 -3300 -3300 -3300 -3300 -3300 
-3300 -3300 -3300 -3300 -3300 -3300 -3300 -3300 -3300 -3300 -3300 -3300 -3300 -3300 -3300 -3300 -3300 -3300 -3300 -3300 -3300 -3300 -3300 -3300 -3300 -3300 -3300 -3300 -3300 -3300 -3300 -3300 -3300 -3300 -3300 -3300 -3300 -3300 -3300 -3300 -3300 -3300 -3300 -3300 -3300 -3300 -3300 -3300 -3300 -3300 -3300 -3300 -3300 -3300 -3300 -3300 -3300 -3300 -3300 -3300 -3300 -3300 -3300 -3300 -3300 -3300 -3300 -3300 -3300 -3300 -3300 -3300 -3300 -3300 -3300 -3300 -3300 -3300 -3300 -3300 -3300 -3300 -3300 -3300 -3300 -3300 -3300 -3300 -3300 -3300 -3300 -3300 -3300 -3300 -3300 -3300 -3300 -3300 -3300 -3300 

-3300 -3300 -3300 -3300 -3300 -3300 -3300 -3300 -3300 -3300 -3300 -3300 -3300 -3300 -3300 -3300 -3300 -3300 -3300 -3300 -3300 -3300 -3300 -3300 -3300 -3300 -3300 -3300 -3300 -3300 -3300 -3300 -3300 -3300 -3300 -3300 -3300 -3300 -3300 -3300 -3300 -3300 -3300 -3300 -3300 -3300 -3300 -3300 -3300 -3300 -3300 -3300 -3300 -3300 -3300 -3300 -3300 -3300 -3300 -3300 -3300 -3300 -3300 -3300 -3300 -3300 -3300 -3300 -3300 -3300 -3300 -3300 -3300 -3300 -3300 -3300 -3300 -3300 -3300 -3300 -3300 -3300 -3300 -3300 -3300 -3300 -3300 -3300 -3300 -3300 -3300 -3300 -3300 -3300 -3300 -3300 -3300 -3300 -3300 -3300 -3300 -3300 -3300 -3300 -3300 -3300 -3300 -3300 -3300 -3300 -3300 -3300 -3300 -3300 -3300 -3300 -3300 -3300 -3300 -3300 
-3300 -3300 -3300 -3300 -3300 -3300 -3300 -3300 -3300 -3300 -3300 -3300 -3300 -3300 -3300 -3300 -3300 -3300 -3300 -3300 -3300 -3300 -3300 -3300 -3300 -3300 -3300 -3300 -3300 -3300 -3300 -3300 -3300 -3300 -3300 -3300 -3300 -3300 -3300 -3300 -3300 -3300 -3300 -3300 -3300 -3300 -3300 -3300 -3300 -3300 -3300 -3300 -3300 -3300 -3300 -3300 -3300 -3300 -3300 -3300 -3300 -3300 -3300 -3300 -3300 -3300 -3300 -3300 -3300 -3300 -3300 -3300 -3300 -3300 -3300 -3300 -3300 -3300 -3300 -3300 -3300 -3300 -3300 -3300 -3300 -3300 -3300 -3300 -3300 -3300 -3300 -3300 -3300 -3300 -3300 -3300 -3300 -3300 -3300 -3300 -3300 -3300 -3300 -3300 -3300 -3300 -3300 -3300 -3300 -3300 -3300 -3300 -3300 -3300 -3300 -3300 -3300 -3300 -3300 -3300 
-3300 -3300 -3300 -3300 -3300 -3300 -3300 -3300 -3300 -3300 -3300 -3300 -3300 -3300 -3300 -3300 -3300 -3300 -3300 -3300 -3300 -3300 -3300 -3300 -3300 -3300 -3300 -3300 -3300 -3300 -3300 -3300 -3300 -3300 -3300 -3300 -3300 -3300 -3300 -3300 -3300 -3300 -3300 -3300 -3300 -3300 -3300 -3300 -3300 -3300 -3300 -3300 -3300 -3300 -3300 -3300 -3300 -3300 -3300 -3300 -3300 -3300 -3300 -3300 -3300 -3300 -3300 -3300 -3300 -3300 -3300 -3300 -3300 -3300 -3300 -3300 -3300 -3300 -3300 -3300 -3300 -3300 -3300 -3300 -3300 -3300 -3300 -3300 -3300 -3300 -3300 -3300 -3300 -3300 -3300 -3300 -3300 -3300 -3300 -3300 -3300 -3300 -3300 -3300 -3300 -3300 -3300 -3300 -3300 -3300 -3300 -3300 -3300 -3300 -3300 -3300 -3300 -3300 -3300 -3300 
-3300 -3300 -3300 -3300 -3300 -3300 -3300 -3300 -3300 -3300 -3300 -3300 -3300 -3300 -3300 -3300 -3300 -3300 -3300 -3300 -3300 -3300 -3300 -3300 -3300 -3300 -3300 -3300 -3300 -3300 -3300 -3300 -3300 -3300 -3300 -3300 -3300 -3300 -3300 -3300 -3300 -3300 -3300 -3300 -3300 -3300 -3300 -3300 -3300 -3300 -3300 -3300 -3300 -3300 -3300 -3300 -3300 -3300 -3300 -3300 -3300 -3300 -3300 -3300 -3300 -3300 -3300 -3300 -3300 -3300 -3300 -3300 -3300 -3300 -3300 -3300 -3300 -3300 -3300 -3300 -3300 -3300 -3300 -3300 -3300 -3300 -3300 -3300 -3300 -3300 -3300 -3300 -3300 -3300 -3300 -3300 -3300 -3300 -3300 -3300 -3300 -3300 -3300 -3300 -3300 -3300 -3300 -3300 -3300 -3300 -3300 -3300 -3300 -3300 -3300 -3300 -3300 -3300 -3300 -3300 
3299.8992 3299.8992 3299.8992 3299.8992 3296.6765 3284.3901 3272.1038 3259.2131 3247.229 3235.2446 3223.059 3211.1755 3199.0906 3187.0056 3175.0212 3163.1377 3151.0527 3139.0686 3124.4658 3104.2236 2930.5022 2743.689 2665.5396 2504.7087 2290.805 1966.0217 1707.5043 1626.2329 1660.0708 1594.5099 1488.0615 1323.6053 446.64 3031.311 3047.223 3062.8325 3078.1401 3093.1458 3108.0505 3122.754 3137.4573 3152.0598 3166.3604 3180.661 3194.9614 3208.96 3222.8577 3237.1582 3251.056 3264.8528 3278.65 3292.3462 3299.8992 -3280.4626 -3266.867 -3253.6743 -3240.28 -3226.9866 -3213.8945 -3200.9033 -3187.9119 -3174.9207 -3162.2314 -3149.6428 -3136.9536 -3124.4658 -3111.7766 -3099.591 -3087.506 -3075.3203 -3063.3362 -3051.3518 -3039.4683 -3027.6855 -3016.104 -3004.4219 -2992.8406 -2981.3599 -2970.0806 -1365.9027 2400.3752 3299.8992 3299.8992 3299.8992 3299.8992 3299.8992 3299.8992 3299.8992 3299.8992 3299.8992 3299.8992 3299.8992 3299.8992 3127.6885 2966.757 2862.9272 2930.3008 3023.2544 3132.321 3157.0952 3148.938 3190.5303 3187.3076 3081.8665 2995.9624 2865.3442 2690.7166 2483.963 2327.2612 2106.7107 1783.3374 1525.7263 1139.6118 945.34607 1158.3435 1343.2434 1314.4409 1114.3341 755.7129 395.37964 
-3300 -3300 -3300 -3300 -3300 -3300 -3300 -3300 -3300 -3300 -3300 -3300 -3300 -3300 -3300 -3300 -3300 -3300 -3300 -3300 -3300 -3300 -3300 -3300 -3300 -3300 -3300 -3300 -3300 -3300 -3300 -3300 -3300 -3300 -3300 -3300 -3300 -3300 -3300 -3300 -3300 -3300 -3300 -3300 -3300 -3300 -3300 -3300 -3300 -3300 -3300 -3300 -3300 -3300 -3300 -3300 -3300 -3300 -3300 -3300 -3300 -3300 -3300 -3300 -3300 -3300 -3300 -3300 -3300 -3300 -3300 -3300 -3300 -3300 -3300 -3300 -3300 -3300 -3300 -3300 -3300 -3300 -3300 -3300 -3300 -3300 -3300 -3300 -3300 -3300 -3300 -3300 -3300 -3300 -3300 -3300 -3300 -3300 -3300 -3300 -3300 -3300 -3300 -3300 -3300 -3300 -3300 -3300 -3300 -3300 -3300 -3300 -3300 -3300 -3300 -3300 -3300 -3300 -3300 -3300 
-3300 -3300 -3300 -3300 -3300 -3300 -3300 -3300 -3300 -3300 -3300 -3300 -3300 -3300 -3300 -3300 -3300 -3300 -3300 -3300 -3300 -3300 -3300 -3300 -3300 -3300 -3300 -3300 -3300 -3300 -3300 -3300 -3300 -3300 -3300 -3300 -3300 -3300 -3300 -3300 -3300 -3300 -3300 -3300 -3300 -3300 -3300 -3300 -3300 -3300 -3300 -3300 -3300 -3300 -3300 -3300 -3300 -3300 -3300 -3300 -3300 -3300 -3300 -3300 -3300 -3300 -3300 -3300 -3300 -3300 -3300 -3300 -3300 -3300 -3300 -3300 -3300 -3300 -3300 -3300 -3300 -3300 -3300 -3300 -3300 -3300 -3300 -3300 -3300 -3300 -3300 -3300 -3300 -3300 -3300 -3300 -3300 -3300 -3300 -3300 -3300 -3300 -3300 -3300 -3300 -3300 -3300 -3300 -3300 -3300 -3300 -3300 -3300 -3300 -3300 -3300 -3300 -3300 -3300 -3300 
-3300 -3300 -3300 -3300 -3300 -3300 -3300 -3300 -3300 -3300 -3300 -3300 -3300 -3300 -3300 -3300 -3300 -3300 -3300 -3300 -3300 -3300 -3300 -3300 -3300 -3300 -3300 -3300 -3300 -3300 -3300 -3300 -3300 -3300 -3300 -3300 -3300 -3300 -3300 -3300 -3300 -3300 -3300 -3300 -3300 -3300 -3300 -3300 -3300 -3300 -3300 -3300 -3300 -3300 -3300 -3300 -3300 -3300 -3300 -3300 -3300 -3300 -3300 -3300 -3300 -3300 -3300 -3300 -3300 -3300 -3300 -3300 -3300 -3300 -3300 -3300 -3300 -3300 -3300 -3300 -3300 -3300 -3300 -3300 -3300 -3300 -3300 -3300 -3300 -3300 -3300 -3300 -3300 -3300 -3300 -3300 -3300 -3300 -3300 -3300 -3300 -3300 -3300 -3300 -3300 -3300 -3300 -3300 -3300 -3300 -3300 -3300 -3300 -3300 -3300 -3300 -3300 -3300 -3300 -3300 

-3300 -3300 -3300 -3300 -3300 -3300 -3300 -3300 -3300 -3300 -3300 -3300 -3300 -3300 -3300 -3300 -3300 -3300 -3300 -3300 -3300 -3300 -3300 -3300 -3300 -3300 -3300 -3300 -3300 -3300 -3300 -3300 -3300 -3300 -3300 -3300 -3300 -3300 -3300 -3300 -3300 -3300 -3300 -3300 -3300 -3300 -3300 -3300 -3300 -3300 -3300 -3300 -3300 -3300 -3300 -3300 -3300 -3300 -3300 -3300 -3300 -3300 -3300 -3300 -3300 -3300 -3300 -3300 -3300 -3300 -3300 -3300 -3300 -3300 -3300 -3300 -3300 -3300 -3300 -3300 -3300 -3300 -3300 -3300 -3300 -3300 -3300 -3300 -3300 -3300 -3300 -3300 -3300 -3300 -3300 -3300 -3300 -3300 -3300 -3300 
-3300 -3300 -3300 -3300 -3300 -3300 -3300 -3300 -3300 -3300 -3300 -3300 -3300 -3300 -3300 -3300 -3300 -3300 -3300 -3300 -3300 -3300 -3300 -3300 -3300 -3300 -3300 -3300 -3300 -3300 -3300 -3300 -3300 -3300 -3300 -3300 -3300 -3300 -3300 -3300 -3300 -3300 -3300 -3300 -3300 -3300 -3300 -3300 -3300 -3300 -3300 -3300 -3300 -3300 -3300 -3300 -3300 -3300 -3300 -3300 -3300 -3300 -3300 -3300 -3300 -3300 -3300 -3300 -3300 -3300 -3300 -3300 -3300 -3300 -3300 -3300 -3300 -3300 -3300 -3300 -3300 -3300 -3300 -3300 -3300 -3300 -3300 -3300 -3300 -3300 -3300 -3300 -3300 -3300 -3300 -3300 -3300 -3300 -3300 -3300 
-3300 -3300 -3300 -3300 -3300 -3300 -3300 -3300 -3300 -3300 -3300 -3300 -3300 -3300 -3300 -3300 -3300 -3300 -3300 -3300 -3300 -3300 -3300 -3300 -3300 -3300 -3300 -3300 -3300 -3300 -3300 -3300 -3300 -3300 -3300 -3300 -3300 -3300 -3300 -3300 -3300 -3300 -3300 -3300 -3300 -3300 -3300 -3300 -3300 -3300 -3300 -3300 -3300 -3300 -3300 -3300 -3300 -3300 -3300 -3300 -3300 -3300 -3300 -3300 -3300 -3300 -3300 -3300 -3300 -3300 -3300 -3300 -3300 -3300 -3300 -3300 -3300 -3300 -3300 -3300 -3300 -3300 -3300 -3300 -3300 -3300 -3300 -3300 -3300 -3300 -3300 -3300 -3300 -3300 -3300 -3300 -3300 -3300 -3300 -3300 
-3300 -3300 -3300 -3300 -3300 -3300 -3300 -3300 -3300 -3300 -3300 -3300 -3300 -3300 -3300 -3300 -3300 -3300 -3300 -3300 -3300 -3300 -3300 -3300 -3300 -3300 -3300 -3300 -3300 -3300 -3300 -3300 -3300 -3300 -3300 -3300 -3300 -3300 -3300 -3300 -3300 -3300 -3300 -3300 -3300 -3300 -3300 -3300 -3300 -3300 -3300 -3300 -3300 -3300 -3300 -3300 -3300 -3300 -3300 -3300 -3300 -3300 -3300 -3300 -3300 -3300 -3300 -3300 -3300 -3300 -3300 -3300 -3300 -3300 -3300 -3300 -3300 -3300 -3300 -3300 -3300 -3300 -3300 -3300 -3300 -3300 -3300 -3300 -3300 -3300 -3300 -3300 -3300 -3300 -3300 -3300 -3300 -3300 -3300 -3300 
56.69861 -238.67798 -542.81616 -914.328 -1207.1869 -1520.0867 -1886.0596 -2087.677 -2328.4697 -2511.557 -2659.497 -1142.0288 1026.6174 1929.1626 2290.6035 2374.3926 2446.9023 2569.5647 2538.1438 2577.2185 2559.8967 2456.5703 2282.0435 2065.5212 1857.5592 1709.8206 1601.0559 1524.7192 1328.0365 1154.9194 1032.7606 925.9094 636.0718 316.22314 -105.13916 -561.85 -974.5514 -1412.7319 -2046.0846 -2679.6387 -3168.173 -889.65454 3158.606 3146.6216 3134.3352 3121.7468 3109.3596 3096.0662 3083.8806 3071.5942 3059.4084 3047.4243 3035.44 3023.4558 3011.8743 3000.1921 2988.9128 2977.7344 2966.5557 2955.5786 2944.6013 2933.4229 2922.7478 2912.0728 2901.599 2891.0247 2880.4504 2869.4731 2859.6038 2849.4324 2839.3616 2829.19 2819.1191 2809.0483 2799.179 2789.209 2779.3396 2769.6716 2759.9028 2750.1343 2740.4663 2731.1003 2721.231 2711.7644 2702.3987 2692.9321 2683.7676 2673.7976 2664.734 2655.6702 2646.6064 2637.442 2628.3782 2619.2139 2610.0493 2597.9644 2553.3508 2298.6602 2079.5195 1926.4435 
-3300 -3300 -3300 -3300 -3300 -3300 -3300 -3300 -3300 -3300 -3300 -3300 -3300 -3300 -3300 -3300 -3300 -3300 -3300 -3300 -3300 -3300 -3300 -3300 -3300 -3300 -3300 -3300 -3300 -3300 -3300 -3300 -3300 -3300 -3300 -3300 -3300 -3300 -3300 -3300 -3300 -3300 -3300 -3300 -3300 -3300 -3300 -3300 -3300 -3300 -3300 -3300 -3300 -3300 -3300 -3300 -3300 -3300 -3300 -3300 -3300 -3300 -3300 -3300 -3300 -3300 -3300 -3300 -3300 -3300 -3300 -3300 -3300 -3300 -3300 -3300 -3300 -3300 -3300 -3300 -3300 -3300 -3300 -3300 -3300 -3300 -3300 -3300 -3300 -3300 -3300 -3300 -3300 -3300 -3300 -3300 -3300 -3300 -3300 -3300 
-3300 -3300 -3300 -3300 -3300 -3300 -3300 -3300 -3300 -3300 -3300 -3300 -3300 -3300 -3300 -3300 -3300 -3300 -3300 -3300 -3300 -3300 -3300 -3300 -3300 -3300 -3300 -3300 -3300 -3300 -3300 -3300 -3300 -3300 -3300 -3300 -3300 -3300 -3300 -3300 -3300 -3300 -3300 -3300 -3300 -3300 -3300 -3300 -3300 -3300 -3300 -3300 -3300 -3300 -3300 -3300 -3300 -3300 -3300 -3300 -3300 -3300 -3300 -3300 -3300 -3300 -3300 -3300 -3300 -3300 -3300 -3300 -3300 -3300 -3300 -3300 -3300 -3300 -3300 -3300 -3300 -3300 -3300 -3300 -3300 -3300 -3300 -3300 -3300 -3300 -3300 -3300 -3300 -3300 -3300 -3300 -3300 -3300 -3300 -3300 
-3300 -3300 -3300 -3300 -3300 -3300 -3300 -3300 -3300 -3300 -3300 -3300 -3300 -3300 -3300 -3300 -3300 -3300 -3300 -3300 -3300 -3300 -3300 -3300 -3300 -3300 -3300 -3300 -3300 -3300 -3300 -3300 -3300 -3300 -3300 -3300 -3300 -3300 -3300 -3300 -3300 -3300 -3300 -3300 -3300 -3300 -3300 -3300 -3300 -3300 -3300 -3300 -3300 -3300 -3300 -3300 -3300 -3300 -3300 -3300 -3300 -3300 -3300 -3300 -3300 -3300 -3300 -3300 -3300 -3300 -3300 -3300 -3300 -3300 -3300 -3300 -3300 -3300 -3300 -3300 -3300 -3300 -3300 -3300 -3300 -3300 -3300 -3300 -3300 -3300 -3300 -3300 -3300 -3300 -3300 -3300 -3300 -3300 -3300 -3300 

-3300 -3300 -3300 -3300 -3300 -3300 -3300 -3300 -3300 -3300 -3300 -3300 -3300 -3300 -3300 -3300 -3300 -3300 -3300 -3300 -3300 -3300 -3300 -3300 -3300 -3300 -3300 -3300 -3300 -3300 -3300 -3300 -3300 -3300 -3300 -3300 -3300 -3300 -3300 -3300 -3300 -3300 -3300 -3300 -3300 -3300 -3300 -3300 -3300 -3300 -3300 -3300 -3300 -3300 -3300 -3300 -3300 -3300 -3300 -3300 -3300 -3300 -3300 -3300 -3300 -3300 -3300 -3300 -3300 -3300 -3300 -3300 -3300 -3300 -3300 -3300 -3300 -3300 -3300 -3300 -3300 -3300 -3300 -3300 -3300 -3300 -3300 -3300 -3300 -3300 -3300 -3300 -3300 -3300 -3300 -3300 -3300 -3300 -3300 -3300 
-3300 -3300 -3300 -3300 -3300 -3300 -3300 -3300 -3300 -3300 -3300 -3300 -3300 -3300 -3300 -3300 -3300 -3300 -3300 -3300 -3300 -3300 -3300 -3300 -3300 -3300 -3300 -3300 -3300 -3300 -3300 -3300 -3300 -3300 -3300 -3300 -3300 -3300 -3300 -3300 -3300 -3300 -3300 -3300 -3300 -3300 -3300 -3300 -3300 -3300 -3300 -3300 -3300 -3300 -3300 -3300 -3300 -3300 -3300 -3300 -3300 -3300 -3300 -3300 -3300 -3300 -3300 -3300 -3300 -3300 -3300 -3300 -3300 -3300 -3300 -3300 -3300 -3300 -3300 -3300 -3300 -3300 -3300 -3300 -3300 -3300 -3300 -3300 -3300 -3300 -3300 -3300 -3300 -3300 -3300 -3300 -3300 -3300 -3300 -3300 
-3300 -3300 -3300 -3300 -3300 -3300 -3300 -3300 -3300 -3300 -3300 -3300 -3300 -3300 -3300 -3300 -3300 -3300 -3300 -3300 -3300 -3300 -3300 -3300 -3300 -3300 -3300 -3300 -3300 -3300 -3300 -3300 -3300 -3300 -3300 -3300 -3300 -3300 -3300 -3300 -3300 -3300 -3300 -3300 -3300 -3300 -3300 -3300 -3300 -3300 -3300 -3300 -3300 -3300 -3300 -3300 -3300 -3300 -3300 -3300 -3300 -3300 -3300 -3300 -3300 -3300 -3300 -3300 -3300 -3300 -3300 -3300 -3300 -3300 -3300 -3300 -3300 -3300 -3300 -3300 -3300 -3300 -3300 -3300 -3300 -3300 -3300 -3300 -3300 -3300 -3300 -3300 -3300 -3300 -3300 -3300 -3300 -3300 -3300 -3300 
-3300 -3300 -3300 -3300 -3300 -3300 -3300 -3300 -3300 -3300 -3300 -3300 -3300 -3300 -3300 -3300 -3300 -3300 -3300 -3300 -3300 -3300 -3300 -3300 -3300 -3300 -3300 -3300 -3300 -3300 -3300 -3300 -3300 -3300 -3300 -3300 -3300 -3300 -3300 -3300 -3300 -3300 -3300 -3300 -3300 -3300 -3300 -3300 -3300 -3300 -3300 -3300 -3300 -3300 -3300 -3300 -3300 -3300 -3300 -3300 -3300 -3300 -3300 -3300 -3300 -3300 -3300 -3300 -3300 -3300 -3300 -3300 -3300 -3300 -3300 -3300 -3300 -3300 -3300 -3300 -3300 -3300 -3300 -3300 -3300 -3300 -3300 -3300 -3300 -3300 -3300 -3300 -3300 -3300 -3300 -3300 -3300 -3300 -3300 -3300 
1738.3209 1559.3628 1346.164 1000.63477 715.02686 510.4889 395.78247 359.729 198.89832 48.239136 -65.15808 -114.30359 -172.10999 -246.13037 -393.36548 -805.7648 -1002.0447 -1032.5592 -1020.9778 -1053.305 -1144.1437 -1288.9618 -1427.9388 -1584.0363 -1681.8237 -1710.1227 -1808.8165 -1841.2445 -2056.1553 -2238.4368 -2332.0952 -2387.4846 -2516.3909 -2599.5757 -2721.6338 -2871.1853 -3000.0916 -3143.399 -3123.3582 -3069.1772 -3046.9207 -3015.1978 -3026.9805 -3051.8555 -3092.743 -3117.819 -2970.0806 -2759.6008 -2712.671 -2657.9863 -2596.051 10.574341 2867.157 2856.1797 2844.9004 2833.5205 2821.939 2810.4583 2798.877 2787.2954 2775.9155 2764.6362 2753.0547 2741.9768 2730.7983 2719.821 2708.6426 2697.3633 2686.7888 2675.9124 2665.2373 2654.3608 2637.3413 2223.3306 1640.7349 1281.4087 1533.078 -2182.846 2642.5781 2667.453 2689.2058 2709.146 2727.6763 2745.401 2762.4207 2778.836 2795.05 2810.861 2826.068 2841.275 2856.381 2871.286 2885.8887 2900.3906 2914.6912 2928.8909 2942.99 2956.8877 2970.6848 2984.5825 
-3300 -3300 -3300 -3300 -3300 -3300 -3300 -3300 -3300 -3300 -3300 -3300 -3300 -3300 -3300 -3300 -3300 -3300 -3300 -3300 -3300 -3300 -3300 -3300 -3300 -3300 -3300 -3300 -3300 -3300 -3300 -3300 -3300 -3300 -3300 -3300 -3300 -3300 -3300 -3300 -3300 -3300 -3300 -3300 -3300 -3300 -3300 -3300 -3300 -3300 -3300 -3300 -3300 -3300 -3300 -3300 -3300 -3300 -3300 -3300 -3300 -3300 -3300 -3300 -3300 -3300 -3300 -3300 -3300 -3300 -3300 -3300 -3300 -3300 -3300 -3300 -3300 -3300 -3300 -3300 -3300 -3300 -3300 -3300 -3300 -3300 -3300 -3300 -3300 -3300 -3300 -3300 -3300 -3300 -3300 -3300 -3300 -3300 -3300 -3300 
-3300 -3300 -3300 -3300 -3300 -3300 -3300 -3300 -3300 -3300 -3300 -3300 -3300 -3300 -3300 -3300 -3300 -3300 -3300 -3300 -3300 -3300 -3300 -3300 -3300 -3300 -3300 -3300 -3300 -3300 -3300 -3300 -3300 -3300 -3300 -3300 -3300 -3300 -3300 -3300 -3300 -3300 -3300 -3300 -3300 -3300 -3300 -3300 -3300 -3300 -3300 -3300 -3300 -3300 -3300 -3300 -3300 -3300 -3300 -3300 -3300 -3300 -3300 -3300 -3300 -3300 -3300 -3300 -3300 -3300 -3300 -3300 -3300 -3300 -3300 -3300 -3300 -3300 -3300 -3300 -3300 -3300 -3300 -3300 -3300 -3300 -3300 -3300 -3300 -3300 -3300 -3300 -3300 -3300 -3300 -3300 -3300 -3300 -3300 -3300 
-3300 -3300 -3300 -3300 -3300 -3300 -3300 -3300 -3300 -3300 -3300 -3300 -3300 -3300 -3300 -3300 -3300 -3300 -3300 -3300 -3300 -3300 -3300 -3300 -3300 -3300 -3300 -3300 -3300 -3300 -3300 -3300 -3300 -3300 -3300 -3300 -3300 -3300 -3300 -3300 -3300 -3300 -3300 -3300 -3300 -3300 -3300 -3300 -3300 -3300 -3300 -3300 -3300 -3300 -3300 -3300 -3300 -3300 -3300 -3300 -3300 -3300 -3300 -3300 -3300 -3300 -3300 -3300 -3300 -3300 -3300 -3300 -3300 -3300 -3300 -3300 -3300 -3300 -3300 -3300 -3300 -3300 -3300 -3300 -3300 -3300 -3300 -3300 -3300 -3300 -3300 -3300 -3300 -3300 -3300 -3300 -3300 -3300 -3300 -3300 

-3300 -3300 -3300 -3300 -3300 -3300 -3300 -3300 -3300 -3300 -3300 -3300 -3300 -3300 -3300 -3300 -3300 -3300 -3300 -3300 -3300 -3300 -3300 -3300 -3300 -3300 -3300 -3300 -3300 -3300 -3300 -3300 -3300 -3300 -3300 -3300 -3300 -3300 -3300 -3300 -3300 -3300 -3300 -3300 -3300 -3300 -3300 -3300 -3300 -3300 -3300 -3300 -3300 -3300 -3300 -3300 -3300 -3300 -3300 -3300 -3300 -3300 -3300 -3300 -3300 -3300 -3300 -3300 -3300 -3300 -3300 -3300 -3300 -3300 -3300 -3300 -3300 -3300 -3300 -3300 -3300 -3300 -3300 -3300 -3300 -3300 -3300 -3300 -3300 -3300 -3300 -3300 -3300 -3300 -3300 -3300 -3300 -3300 -3300 -3300 
-3300 -3300 -3300 -3300 -3300 -3300 -3300 -3300 -3300 -3300 -3300 -3300 -3300 -3300 -3300 -3300 -3300 -3300 -3300 -3300 -3300 -3300 -3300 -3300 -3300 -3300 -3300 -3300 -3300 -3300 -3300 -3300 -3300 -3300 -3300 -3300 -3300 -3300 -3300 -3300 -3300 -3300 -3300 -3300 -3300 -3300 -3300 -3300 -3300 -3300 -3300 -3300 -3300 -3300 -3300 -3300 -3300 -3300 -3300 -3300 -3300 -3300 -3300 -3300 -3300 -3300 -3300 -3300 -3300 -3300 -3300 -3300 -3300 -3300 -3300 -3300 -3300 -3300 -3300 -3300 -3300 -3300 -3300 -3300 -3300 -3300 -3300 -3300 -3300 -3300 -3300 -3300 -3300 -3300 -3300 -3300 -3300 -3300 -3300 -3300 
-3300 -3300 -3300 -3300 -3300 -3300 -3300 -3300 -3300 -3300 -3300 -3300 -3300 -3300 -3300 -3300 -3300 -3300 -3300 -3300 -3300 -3300 -3300 -3300 -3300 -3300 -3300 -3300 -3300 -3300 -3300 -3300 -3300 -3300 -3300 -3300 -3300 -3300 -3300 -3300 -3300 -3300 -3300 -3300 -3300 -3300 -3300 -3300 -3300 -3300 -3300 -3300 -3300 -3300 -3300 -3300 -3300 -3300 -3300 -3300 -3300 -3300 -3300 -3300 -3300 -3300 -3300 -3300 -3300 -3300 -3300 -3300 -3300 -3300 -3300 -3300 -3300 -3300 -3300 -3300 -3300 -3300 -3300 -3300 -3300 -3300 -3300 -3300 -3300 -3300 -3300 -3300 -3300 -3300 -3300 -3300 -3300 -3300 -3300 -3300 
-3300 -3300 -3300 -3300 -3300 -3300 -3300 -3300 -3300 -3300 -3300 -3300 -3300 -3300 -3300 -3300 -3300 -3300 -3300 -3300 -3300 -3300 -3300 -3300 -3300 -3300 -3300 -3300 -3300 -3300 -3300 -3300 -3300 -3300 -3300 -3300 -3300 -3300 -3300 -3300 -3300 -3300 -3300 -3300 -3300 -3300 -3300 -3300 -3300 -3300 -3300 -3300 -3300 -3300 -3300 -3300 -3300 -3300 -3300 -3300 -3300 -3300 -3300 -3300 -3300 -3300 -3300 -3300 -3300 -3300 -3300 -3300 -3300 -3300 -3300 -3300 -3300 -3300 -3300 -3300 -3300 -3300 -3300 -3300 -3300 -3300 -3300 -3300 -3300 -3300 -3300 -3300 -3300 -3300 -3300 -3300 -3300 -3300 -3300 -3300 
2998.2788 3011.6729 3025.47 3038.864 3052.359 3065.7532 3078.8452 3092.34 3105.4321 3118.7256 3131.8176 3145.0103 3158.0017 3170.993 3183.9844 3196.875 3209.8662 3222.7568 3235.5469 3248.4375 3261.2273 3274.2188 3286.7065 3299.4963 -3287.8142 -3275.2258 -3262.4358 -3249.8474 -3237.561 -3224.9724 -3212.4846 -3200.1982 -3187.8113 -3175.6255 -3163.44 -3151.1536 -3139.0686 -3127.0842 -3115.1 -3103.2166 -3091.4336 -3079.7515 -3067.9688 -3056.2866 -3044.806 -3033.3252 -3022.046 -3010.5652 -2999.3865 -2988.1072 -2976.9287 -2965.9514 -2954.8735 -2944.098 -2933.2214 -2922.345 -2911.569 -2900.9949 -2890.4204 -2879.9468 -2869.3726 -2858.798 -2848.6267 -2838.2537 -2828.0823 -2817.81 -2807.5378 -2797.467 -2787.799 -2777.6274 -2754.0618 -2690.6157 -2748.523 -2738.7542 -2728.8848 -2719.4182 -2709.7502 -2700.183 -2690.8171 -2681.25 -2671.884 -2662.9211 -2653.2532 -2644.0886 -2634.9243 -2625.7598 -2616.8975 -2607.431 -2598.5686 -2589.6057 -2580.6426 -2571.7803 -2563.0188 -2554.257 -2545.4956 -2536.734 -2528.073 -2519.412 -2156.8633 -1571.9513 
-3300 -3300 -3300 -3300 -3300 -3300 -3300 -3300 -3300 -3300 -3300 -3300 -3300 -3300 -3300 -3300 -3300 -3300 -3300 -3300 -3300 -3300 -3300 -3300 -3300 -3300 -3300 -3300 -3300 -3300 -3300 -3300 -3300 -3300 -3300 -3300 -3300 -3300 -3300 -3300 -3300 -3300 -3300 -3300 -3300 -3300 -3300 -3300 -3300 -3300 -3300 -3300 -3300 -3300 -3300 -3300 -3300 -3300 -3300 -3300 -3300 -3300 -3300 -3300 -3300 -3300 -3300 -3300 -3300 -3300 -3300 -3300 -3300 -3300 -3300 -3300 -3300 -3300 -3300 -3300 -3300 -3300 -3300 -3300 -3300 -3300 -3300 -3300 -3300 -3300 -3300 -3300 -3300 -3300 -3300 -3300 -3300 -3300 -3300 -3300 
-3300 -3300 -3300 -3300 -3300 -3300 -3300 -3300 -3300 -3300 -3300 -3300 -3300 -3300 -3300 -3300 -3300 -3300 -3300 -3300 -3300 -3300 -3300 -3300 -3300 -3300 -3300 -3300 -3300 -3300 -3300 -3300 -3300 -3300 -3300 -3300 -3300 -3300 -3300 -3300 -3300 -3300 -3300 -3300 -3300 -3300 -3300 -3300 -3300 -3300 -3300 -3300 -3300 -3300 -3300 -3300 -3300 -3300 -3300 -3300 -3300 -3300 -3300 -3300 -3300 -3300 -3300 -3300 -3300 -3300 -3300 -3300 -3300 -3300 -3300 -3300 -3300 -3300 -3300 -3300 -3300 -3300 -3300 -3300 -3300 -3300 -3300 -3300 -3300 -3300 -3300 -3300 -3300 -3300 -3300 -3300 -3300 -3300 -3300 -3300 
-3300 -3300 -3300 -3300 -3300 -3300 -3300 -3300 -3300 -3300 -3300 -3300 -3300 -3300 -3300 -3300 -3300 -3300 -3300 -3300 -3300 -3300 -3300 -3300 -3300 -3300 -3300 -3300 -3300 -3300 -3300 -3300 -3300 -3300 -3300 -3300 -3300 -3300 -3300 -3300 -3300 -3300 -3300 -3300 -3300 -3300 -3300 -3300 -3300 -3300 -3300 -3300 -3300 -3300 -3300 -3300 -3300 -3300 -3300 -3300 -3300 -3300 -3300 -3300 -3300 -3300 -3300 -3300 -3300 -3300 -3300 -3300 -3300 -3300 -3300 -3300 -3300 -3300 -3300 -3300 -3300 -3300 -3300 -3300 -3300 -3300 -3300 -3300 -3300 -3300 -3300 -3300 -3300 -3300 -3300 -3300 -3300 -3300 -3300 -3300 

-3300 -3300 -3300 -3300 -3300 -3300 -3300 -3300 -3300 -3300 -3300 -3300 -3300 -3300 -3300 -3300 -3300 -3300 -3300 -3300 -3300 -3300 -3300 -3300 -3300 -3300 -3300 -3300 -3300 -3300 -3300 -3300 -3300 -3300 -3300 -3300 -3300 -3300 -3300 -3300 -3300 -3300 -3300 -3300 -3300 -3300 -3300 -3300 -3300 -3300 -3300 -3300 -3300 -3300 -3300 -3300 -3300 -3300 -3300 -3300 -3300 -3300 -3300 -3300 -3300 -3300 -3300 -3300 -3300 -3300 -3300 -3300 -3300 -3300 -3300 -3300 -3300 -3300 -3300 -3300 -3300 -3300 -3300 -3300 -3300 -3300 -3300 -3300 -3300 -3300 -3300 -3300 -3300 -3300 -3300 -3300 -3300 -3300 -3300 -3300 
-3300 -3300 -3300 -3300 -3300 -3300 -3300 -3300 -3300 -3300 -3300 -3300 -3300 -3300 -3300 -3300 -3300 -3300 -3300 -3300 -3300 -3300 -3300 -3300 -3300 -3300 -3300 -3300 -3300 -3300 -3300 -3300 -3300 -3300 -3300 -3300 -3300 -3300 -3300 -3300 -3300 -3300 -3300 -3300 -3300 -3300 -3300 -3300 -3300 -3300 -3300 -3300 -3300 -3300 -3300 -3300 -3300 -3300 -3300 -3300 -3300 -3300 -3300 -3300 -3300 -3300 -3300 -3300 -3300 -3300 -3300 -3300 -3300 -3300 -3300 -3300 -3300 -3300 -3300 -3300 -3300 -3300 -3300 -3300 -3300 -3300 -3300 -3300 -3300 -3300 -3300 -3300 -3300 -3300 -3300 -3300 -3300 -3300 -3300 -3300 
-3300 -3300 -3300 -3300 -3300 -3300 -3300 -3300 -3300 -3300 -3300 -3300 -3300 -3300 -3300 -3300 -3300 -3300 -3300 -3300 -3300 -3300 -3300 -3300 -3300 -3300 -3300 -3300 -3300 -3300 -3300 -3300 -3300 -3300 -3300 -3300 -3300 -3300 -3300 -3300 -3300 -3300 -3300 -3300 -3300 -3300 -3300 -3300 -3300 -3300 -3300 -3300 -3300 -3300 -3300 -3300 -3300 -3300 -3300 -3300 -3300 -3300 -3300 -3300 -3300 -3300 -3300 -3300 -3300 -3300 -3300 -3300 -3300 -3300 -3300 -3300 -3300 -3300 -3300 -3300 -3300 -3300 -3300 -3300 -3300 -3300 -3300 -3300 -3300 -3300 -3300 -3300 -3300 -3300 -3300 -3300 -3300 -3300 -3300 -3300 
-3300 -3300 -3300 -3300 -3300 -3300 -3300 -3300 -3300 -3300 -3300 -3300 -3300 -3300 -3300 -3300 -3300 -3300 -3300 -3300 -3300 -3300 -3300 -3300 -3300 -3300 -3300 -3300 -3300 -3300 -3300 -3300 -3300 -3300 -3300 -3300 -3300 -3300 -3300 -3300 -3300 -3300 -3300 -3300 -3300 -3300 -3300 -3300 -3300 -3300 -3300 -3300 -3300 -3300 -3300 -3300 -3300 -3300 -3300 -3300 -3300 -3300 -3300 -3300 -3300 -3300 -3300 -3300 -3300 -3300 -3300 -3300 -3300 -3300 -3300 -3300 -3300 -3300 -3300 -3300 -3300 -3300 -3300 -3300 -3300 -3300 -3300 -3300 -3300 -3300 -3300 -3300 -3300 -3300 -3300 -3300 -3300 -3300 -3300 -3300 
-994.39087 -442.91382 3.0212402 505.15137 939.1022 1393.4967 1768.1305 1911.7401 2175.8972 2464.325 2641.9739 2693.8384 2712.7715 2592.224 2312.3564 1839.9353 1283.02 750.17395 227.90222 -287.8235 -826.1078 -1311.9232 -1887.3688 -2363.516 -2586.786 -2576.1108 -2565.335 -2555.0627 -2544.8914 -2534.7197 -2524.5483 -2514.5781 -2504.9102 -2495.2422 -2485.8765 -2468.4539 -1979.2145 -1312.5275 -713.3148 -231.52771 278.0548 842.7246 1476.3794 2072.47 2484.3657 2901.0955 3276.3335 3299.8992 3299.8992 3299.8992 3299.8992 3299.8992 3299.8992 3299.8992 3299.8992 3299.8992 2908.0444 2085.4614 1398.4314 856.723 417.5354 -28.29895 -552.68555 -1032.7606 -1292.2852 -1592.9993 -1842.453 -2257.7727 -2342.9717 -2364.8254 -2623.645 -2613.0706 -2602.3955 -2527.1667 -2260.2905 -1858.667 -1244.046 -636.77673 -267.17834 83.78906 519.754 778.07007 1076.5686 1600.5524 2143.2678 2549.3225 2706.1248 2551.538 2734.7258 2889.917 3251.7607 3299.8992 3299.8992 3299.8992 3241.1865 2837.448 2201.2756 1564.1968 990.46326 577.5604 
-3300 -3300 -3300 -3300 -3300 -3300 -3300 -3300 -3300 -3300 -3300 -3300 -3300 -3300 -3300 -3300 -3300 -3300 -3300 -3300 -3300 -3300 -3300 -3300 -3300 -3300 -3300 -3300 -3300 -3300 -3300 -3300 -3300 -3300 -3300 -3300 -3300 -3300 -3300 -3300 -3300 -3300 -3300 -3300 -3300 -3300 -3300 -3300 -3300 -3300 -3300 -3300 -3300 -3300 -3300 -3300 -3300 -3300 -3300 -3300 -3300 -3300 -3300 -3300 -3300 -3300 -3300 -3300 -3300 -3300 -3300 -3300 -3300 -3300 -3300 -3300 -3300 -3300 -3300 -3300 -3300 -3300 -3300 -3300 -3300 -3300 -3300 -3300 -3300 -3300 -3300 -3300 -3300 -3300 -3300 -3300 -3300 -3300 -3300 -3300 
-3300 -3300 -3300 -3300 -3300 -3300 -3300 -3300 -3300 -3300 -3300 -3300 -3300 -3300 -3300 -3300 -3300 -3300 -3300 -3300 -3300 -3300 -3300 -3300 -3300 -3300 -3300 -3300 -3300 -3300 -3300 -3300 -3300 -3300 -3300 -3300 -3300 -3300 -3300 -3300 -3300 -3300 -3300 -3300 -3300 -3300 -3300 -3300 -3300 -3300 -3300 -3300 -3300 -3300 -3300 -3300 -3300 -3300 -3300 -3300 -3300 -3300 -3300 -3300 -3300 -3300 -3300 -3300 -3300 -3300 -3300 -3300 -3300 -3300 -3300 -3300 -3300 -3300 -3300 -3300 -3300 -3300 -3300 -3300 -3300 -3300 -3300 -3300 -3300 -3300 -3300 -3300 -3300 -3300 -3300 -3300 -3300 -3300 -3300 -3300 
-3300 -3300 -3300 -3300 -3300 -3300 -3300 -3300 -3300 -3300 -3300 -3300 -3300 -3300 -3300 -3300 -3300 -3300 -3300 -3300 -3300 -3300 -3300 -3300 -3300 -3300 -3300 -3300 -3300 -3300 -3300 -3300 -3300 -3300 -3300 -3300 -3300 -3300 -3300 -3300 -3300 -3300 -3300 -3300 -3300 -3300 -3300 -3300 -3300 -3300 -3300 -3300 -3300 -3300 -3300 -3300 -3300 -3300 -3300 -3300 -3300 -3300 -3300 -3300 -3300 -3300 -3300 -3300 -3300 -3300 -3300 -3300 -3300 -3300 -3300 -3300 -3300 -3300 -3300 -3300 -3300 -3300 -3300 -3300 -3300 -3300 -3300 -3300 -3300 -3300 -3300 -3300 -3300 -3300 -3300 -3300 -3300 -3300 -3300 -3300 

-3300 -3300 -3300 -3300 -3300 -3300 -3300 -3300 -3300 -3300 -3300 -3300 -3300 -3300 -3300 -3300 -3300 -3300 -3300 -3300 -3300 -3300 -3300 -3300 -3300 -3300 -3300 -3300 -3300 -3300 -3300 -3300 -3300 -3300 -3300 -3300 -3300 -3300 -3300 -3300 -3300 -3300 -3300 -3300 -3300 -3300 -3300 -3300 -3300 -3300 -3300 -3300 -3300 -3300 -3300 -3300 -3300 -3300 -3300 -3300 -3300 -3300 -3300 -3300 -3300 -3300 -3300 -3300 -3300 -3300 -3300 -3300 -3300 -3300 -3300 -3300 -3300 -3300 -3300 -3300 -3300 -3300 -3300 -3300 -3300 -3300 -3300 -3300 -3300 -3300 -3300 -3300 -3300 -3300 -3300 -3300 -3300 -3300 -3300 -3300 
-3300 -3300 -3300 -3300 -3300 -3300 -3300 -3300 -3300 -3300 -3300 -3300 -3300 -3300 -3300 -3300 -3300 -3300 -3300 -3300 -3300 -3300 -3300 -3300 -3300 -3300 -3300 -3300 -3300 -3300 -3300 -3300 -3300 -3300 -3300 -3300 -3300 -3300 -3300 -3300 -3300 -3300 -3300 -3300 -3300 -3300 -3300 -3300 -3300 -3300 -3300 -3300 -3300 -3300 -3300 -3300 -3300 -3300 -3300 -3300 -3300 -3300 -3300 -3300 -3300 -3300 -3300 -3300 -3300 -3300 -3300 -3300 -3300 -3300 -3300 -3300 -3300 -3300 -3300 -3300 -3300 -3300 -3300 -3300 -3300 -3300 -3300 -3300 -3300 -3300 -3300 -3300 -3300 -3300 -3300 -3300 -3300 -3300 -3300 -3300 
-3300 -3300 -3300 -3300 -3300 -3300 -3300 -3300 -3300 -3300 -3300 -3300 -3300 -3300 -3300 -3300 -3300 -3300 -3300 -3300 -3300 -3300 -3300 -3300 -3300 -3300 -3300 -3300 -3300 -3300 -3300 -3300 -3300 -3300 -3300 -3300 -3300 -3300 -3300 -3300 -3300 -3300 -3300 -3300 -3300 -3300 -3300 -3300 -3300 -3300 -3300 -3300 -3300 -3300 -3300 -3300 -3300 -3300 -3300 -3300 -3300 -3300 -3300 -3300 -3300 -3300 -3300 -3300 -3300 -3300 -3300 -3300 -3300 -3300 -3300 -3300 -3300 -3300 -3300 -3300 -3300 -3300 -3300 -3300 -3300 -3300 -3300 -3300 -3300 -3300 -3300 -3300 -3300 -3300 -3300 -3300 -3300 -3300 -3300 -3300 
-3300 -3300 -3300 -3300 -3300 -3300 -3300 -3300 -3300 -3300 -3300 -3300 -3300 -3300 -3300 -3300 -3300 -3300 -3300 -3300 -3300 -3300 -3300 -3300 -3300 -3300 -3300 -3300 -3300 -3300 -3300 -3300 -3300 -3300 -3300 -3300 -3300 -3300 -3300 -3300 -3300 -3300 -3300 -3300 -3300 -3300 -3300 -3300 -3300 -3300 -3300 -3300 -3300 -3300 -3300 -3300 -3300 -3300 -3300 -3300 -3300 -3300 -3300 -3300 -3300 -3300 -3300 -3300 -3300 -3300 -3300 -3300 -3300 -3300 -3300 -3300 -3300 -3300 -3300 -3300 -3300 -3300 -3300 -3300 -3300 -3300 -3300 -3300 -3300 -3300 -3300 -3300 -3300 -3300 -3300 -3300 -3300 -3300 -3300 -3300 
88.11951 -449.35913 -1195.3033 -1931.6803 -2622.94 -2713.7786 -2702.6 -2691.22 -2680.3435 -2669.2656 -2658.5906 -2647.9155 -2637.2405 -2612.5671 -2097.647 -1332.0648 -493.1671 257.10754 918.3563 1511.2244 2103.8909 2725.1587 3299.8992 3299.8992 3299.8992 3299.8992 3299.8992 3299.8992 3299.8992 -2738.7542 -2726.77 -2714.987 -2703.5063 -2692.328 -2681.1492 -2670.172 -2659.1948 -2648.4192 -2637.6433 -2626.9683 -2616.4946 -2606.1218 -2595.5474 -2585.1746 -2575.1038 -2564.9321 -2555.0627 -2544.8914 -2535.022 -2525.2532 -2515.4846 -2505.8167 -2496.1487 -2486.5813 -2477.2156 -2209.2314 -1439.8224 -633.35266 119.33899 759.03625 1360.5652 2041.8549 2678.5308 3299.8992 3299.8992 3299.8992 3299.8992 3299.8992 3299.8992 3299.8992 3299.8992 3299.8992 3299.8992 3299.8992 3299.8992 3299.8992 3299.8992 3299.8992 3299.8992 3299.8992 3078.8452 2652.4475 2121.9177 1511.6272 843.22815 349.4568 -70.19348 -421.86584 -605.45654 -784.7168 -866.99524 -830.43823 -632.3456 -332.63855 94.766235 632.8491 1230.5511 1926.0406 2533.2092 2996.466 
-3300 -3300 -3300 -3300 -3300 -3300 -3300 -3300 -3300 -3300 -3300 -3300 -3300 -3300 -3300 -3300 -3300 -3300 -3300 -3300 -3300 -3300 -3300 -3300 -3300 -3300 -3300 -3300 -3300 -3300 -3300 -3300 -3300 -3300 -3300 -3300 -3300 -3300 -3300 -3300 -3300 -3300 -3300 -3300 -3300 -3300 -3300 -3300 -3300 -3300 -3300 -3300 -3300 -3300 -3300 -3300 -3300 -3300 -3300 -3300 -3300 -3300 -3300 -3300 -3300 -3300 -3300 -3300 -3300 -3300 -3300 -3300 -3300 -3300 -3300 -3300 -3300 -3300 -3300 -3300 -3300 -3300 -3300 -3300 -3300 -3300 -3300 -3300 -3300 -3300 -3300 -3300 -3300 -3300 -3300 -3300 -3300 -3300 -3300 -3300 
-3300 -3300 -3300 -3300 -3300 -3300 -3300 -3300 -3300 -3300 -3300 -3300 -3300 -3300 -3300 -3300 -3300 -3300 -3300 -3300 -3300 -3300 -3300 -3300 -3300 -3300 -3300 -3300 -3300 -3300 -3300 -3300 -3300 -3300 -3300 -3300 -3300 -3300 -3300 -3300 -3300 -3300 -3300 -3300 -3300 -3300 -3300 -3300 -3300 -3300 -3300 -3300 -3300 -3300 -3300 -3300 -3300 -3300 -3300 -3300 -3300 -3300 -3300 -3300 -3300 -3300 -3300 -3300 -3300 -3300 -3300 -3300 -3300 -3300 -3300 -3300 -3300 -3300 -3300 -3300 -3300 -3300 -3300 -3300 -3300 -3300 -3300 -3300 -3300 -3300 -3300 -3300 -3300 -3300 -3300 -3300 -3300 -3300 -3300 -3300 
-3300 -3300 -3300 -3300 -3300 -3300 -3300 -3300 -3300 -3300 -3300 -3300 -3300 -3300 -3300 -3300 -3300 -3300 -3300 -3300 -3300 -3300 -3300 -3300 -3300 -3300 -3300 -3300 -3300 -3300 -3300 -3300 -3300 -3300 -3300 -3300 -3300 -3300 -3300 -3300 -3300 -3300 -3300 -3300 -3300 -3300 -3300 -3300 -3300 -3300 -3300 -3300 -3300 -3300 -3300 -3300 -3300 -3300 -3300 -3300 -3300 -3300 -3300 -3300 -3300 -3300 -3300 -3300 -3300 -3300 -3300 -3300 -3300 -3300 -3300 -3300 -3300 -3300 -3300 -3300 -3300 -3300 -3300 -3300 -3300 -3300 -3300 -3300 -3300 -3300 -3300 -3300 -3300 -3300 -3300 -3300 -3300 -3300 -3300 -3300 

-3300 -3300 -3300 -3300 -3300 -3300 -3300 -3300 -3300 -3300 -3300 -3300 -3300 -3300 -3300 -3300 -3300 -3300 -3300 -3300 -3300 -3300 -3300 -3300 -3300 -3300 -3300 -3300 -3300 -3300 -3300 -3300 -3300 -3300 -3300 -3300 -3300 -3300 -3300 -3300 -3300 -3300 -3300 -3300 -3300 -3300 -3300 -3300 -3300 -3300 -3300 -3300 -3300 -3300 -3300 -3300 -3300 -3300 -3300 -3300 -3300 -3300 -3300 -3300 -3300 -3300 -3300 -3300 -3300 -3300 -3300 -3300 -3300 -3300 -3300 -3300 -3300 -3300 -3300 -3300 -3300 -3300 -3300 -3300 -3300 -3300 -3300 -3300 -3300 -3300 -3300 -3300 -3300 -3300 -3300 -3300 -3300 -3300 -3300 -3300 -3300 -3300 -3300 -3300 -3300 -3300 -3300 -3300 -3300 -3300 -3300 -3300 -3300 -3300 -3300 -3300 -3300 -3300 -3300 -3300 
-3300 -3300 -3300 -3300 -3300 -3300 -3300 -3300 -3300 -3300 -3300 -3300 -3300 -3300 -3300 -3300 -3300 -3300 -3300 -3300 -3300 -3300 -3300 -3300 -3300 -3300 -3300 -3300 -3300 -3300 -3300 -3300 -3300 -3300 -3300 -3300 -3300 -3300 -3300 -3300 -3300 -3300 -3300 -3300 -3300 -3300 -3300 -3300 -3300 -3300 -3300 -3300 -3300 -3300 -3300 -3300 -3300 -3300 -3300 -3300 -3300 -3300 -3300 -3300 -3300 -3300 -3300 -3300 -3300 -3300 -3300 -3300 -3300 -3300 -3300 -3300 -3300 -3300 -3300 -3300 -3300 -3300 -3300 -3300 -3300 -3300 -3300 -3300 -3300 -3300 -3300 -3300 -3300 -3300 -3300 -3300 -3300 -3300 -3300 -3300 -3300 -3300 -3300 -3300 -3300 -3300 -3300 -3300 -3300 -3300 -3300 -3300 -3300 -3300 -3300 -3300 -3300 -3300 -3300 -3300 
-3300 -3300 -3300 -3300 -3300 -3300 -3300 -3300 -3300 -3300 -3300 -3300 -3300 -3300 -3300 -3300 -3300 -3300 -3300 -3300 -3300 -3300 -3300 -3300 -3300 -3300 -3300 -3300 -3300 -3300 -3300 -3300 -3300 -3300 -3300 -3300 -3300 -3300 -3300 -3300 -3300 -3300 -3300 -3300 -3300 -3300 -3300 -3300 -3300 -3300 -3300 -3300 -3300 -3300 -3300 -3300 -3300 -3300 -3300 -3300 -3300 -3300 -3300 -3300 -3300 -3300 -3300 -3300 -3300 -3300 -3300 -3300 -3300 -3300 -3300 -3300 -3300 -3300 -3300 -3300 -3300 -3300 -3300 -3300 -3300 -3300 -3300 -3300 -3300 -3300 -3300 -3300 -3300 -3300 -3300 -3300 -3300 -3300 -3300 -3300 -3300 -3300 -3300 -3300 -3300 -3300 -3300 -3300 -3300 -3300 -3300 -3300 -3300 -3300 -3300 -3300 -3300 -3300 -3300 -3300 
-3300 -3300 -3300 -3300 -3300 -3300 -3300 -3300 -3300 -3300 -3300 -3300 -3300 -3300 -3300 -3300 -3300 -3300 -3300 -3300 -3300 -3300 -3300 -3300 -3300 -3300 -3300 -3300 -3300 -3300 -3300 -3300 -3300 -3300 -3300 -3300 -3300 -3300 -3300 -3300 -3300 -3300 -3300 -3300 -3300 -3300 -3300 -3300 -3300 -3300 -3300 -3300 -3300 -3300 -3300 -3300 -3300 -3300 -3300 -3300 -3300 -3300 -3300 -3300 -3300 -3300 -3300 -3300 -3300 -3300 -3300 -3300 -3300 -3300 -3300 -3300 -3300 -3300 -3300 -3300 -3300 -3300 -3300 -3300 -3300 -3300 -3300 -3300 -3300 -3300 -3300 -3300 -3300 -3300 -3300 -3300 -3300 -3300 -3300 -3300 -3300 -3300 -3300 -3300 -3300 -3300 -3300 -3300 -3300 -3300 -3300 -3300 -3300 -3300 -3300 -3300 -3300 -3300 -3300 -3300 
3299.8992 3299.8992 3299.8992 3299.8992 3299.8992 3299.8992 3299.8992 3299.8992 3299.8992 3299.8992 3299.8992 3299.8992 3299.8992 3299.8992 3299.8992 3299.8992 3299.8992 3299.8992 3299.8992 3299.8992 3105.6335 2635.4277 1988.2782 1350.5951 667.19055 107.05261 -245.62683 -649.76807 -884.92126 -1122.6929 -1311.2183 -1325.2167 -1121.0815 -766.69006 -266.07056 395.78247 1138.504 1869.5435 2530.9937 3072.4 3299.8992 3299.8992 3299.8992 3299.8992 3299.8992 3299.8992 3299.8992 3299.8992 3299.8992 3299.8992 3299.8992 3299.8992 3299.8992 3296.3745 3283.5845 3270.996 3258.0046 3245.2148 3229.2021 3069.58 2541.0645 1954.6417 1227.832 458.12073 -245.12329 -768.5028 -1124.707 -1577.9938 -1770.7489 -2020.6055 -2103.5889 -1993.6157 -1647.1802 -1161.1633 -574.7406 146.93298 955.6183 1740.033 2471.475 3065.7532 3215.0024 3202.011 3189.4226 3176.834 3164.447 3152.0598 3139.6729 3127.185 3115.503 3103.72 3092.1387 3080.3557 3068.573 3056.8909 3045.3093 3033.6272 3021.945 3007.3425 2940.7744 2428.775 1874.5789 953.1006 -148.94714 -1253.714 -2202.0813 -2664.2302 -2862.8264 3281.5703 3175.525 3056.6895 3245.7183 -2901.8005 -2143.167 -1338.8123 -268.28613 862.7655 1905.1941 2867.6604 3068.9758 3056.8909 
-3300 -3300 -3300 -3300 -3300 -3300 -3300 -3300 -3300 -3300 -3300 -3300 -3300 -3300 -3300 -3300 -3300 -3300 -3300 -3300 -3300 -3300 -3300 -3300 -3300 -3300 -3300 -3300 -3300 -3300 -3300 -3300 -3300 -3300 -3300 -3300 -3300 -3300 -3300 -3300 -3300 -3300 -3300 -3300 -3300 -3300 -3300 -3300 -3300 -3300 -3300 -3300 -3300 -3300 -3300 -3300 -3300 -3300 -3300 -3300 -3300 -3300 -3300 -3300 -3300 -3300 -3300 -3300 -3300 -3300 -3300 -3300 -3300 -3300 -3300 -3300 -3300 -3300 -3300 -3300 -3300 -3300 -3300 -3300 -3300 -3300 -3300 -3300 -3300 -3300 -3300 -3300 -3300 -3300 -3300 -3300 -3300 -3300 -3300 -3300 -3300 -3300 -3300 -3300 -3300 -3300 -3300 -3300 -3300 -3300 -3300 -3300 -3300 -3300 -3300 -3300 -3300 -3300 -3300 -3300 
-3300 -3300 -3300 -3300 -3300 -3300 -3300 -3300 -3300 -3300 -3300 -3300 -3300 -3300 -3300 -3300 -3300 -3300 -3300 -3300 -3300 -3300 -3300 -3300 -3300 -3300 -3300 -3300 -3300 -3300 -3300 -3300 -3300 -3300 -3300 -3300 -3300 -3300 -3300 -3300 -3300 -3300 -3300 -3300 -3300 -3300 -3300 -3300 -3300 -3300 -3300 -3300 -3300 -3300 -3300 -3300 -3300 -3300 -3300 -3300 -3300 -3300 -3300 -3300 -3300 -3300 -3300 -3300 -3300 -3300 -3300 -3300 -3300 -3300 -3300 -3300 -3300 -3300 -3300 -3300 -3300 -3300 -3300 -3300 -3300 -3300 -3300 -3300 -3300 -3300 -3300 -3300 -3300 -3300 -3300 -3300 -3300 -3300 -3300 -3300 -3300 -3300 -3300 -3300 -3300 -3300 -3300 -3300 -3300 -3300 -3300 -3300 -3300 -3300 -3300 -3300 -3300 -3300 -3300 -3300 
-3300 -3300 -3300 -3300 -3300 -3300 -3300 -3300 -3300 -3300 -3300 -3300 -3300 -3300 -3300 -3300 -3300 -3300 -3300 -3300 -3300 -3300 -3300 -3300 -3300 -3300 -3300 -3300 -3300 -3300 -3300 -3300 -3300 -3300 -3300 -3300 -3300 -3300 -3300 -3300 -3300 -3300 -3300 -3300 -3300 -3300 -3300 -3300 -3300 -3300 -3300 -3300 -3300 -3300 -3300 -3300 -3300 -3300 -3300 -3300 -3300 -3300 -3300 -3300 -3300 -3300 -3300 -3300 -3300 -3300 -3300 -3300 -3300 -3300 -3300 -3300 -3300 -3300 -3300 -3300 -3300 -3300 -3300 -3300 -3300 -3300 -3300 -3300 -3300 -3300 -3300 -3300 -3300 -3300 -3300 -3300 -3300 -3300 -3300 -3300 -3300 -3300 -3300 -3300 -3300 -3300 -3300 -3300 -3300 -3300 -3300 -3300 -3300 -3300 -3300 -3300 -3300 -3300 -3300 -3300 

-3300 -3300 -3300 -3300 -3300 -3300 -3300 -3300 -3300 -3300 -3300 -3300 -3300 -3300 -3300 -3300 -3300 -3300 -3300 -3300 -3300 -3300 -3300 -3300 -3300 -3300 -3300 -3300 -3300 -3300 -3300 -3300 -3300 -3300 -3300 -3300 -3300 -3300 -3300 -3300 -3300 -3300 -3300 -3300 -3300 -3300 -3300 -3300 -3300 -3300 -3300 -3300 -3300 -3300 -3300 -3300 -3300 -3300 -3300 -3300 -3300 -3300 -3300 -3300 -3300 -3300 -3300 -3300 -3300 -3300 -3300 -3300 -3300 -3300 -3300 -3300 -3300 -3300 -3300 -3300 -3300 -3300 -3300 -3300 -3300 -3300 -3300 -3300 -3300 -3300 -3300 -3300 -3300 -3300 -3300 -3300 -3300 -3300 -3300 -3300 
-3300 -3300 -3300 -3300 -3300 -3300 -3300 -3300 -3300 -3300 -3300 -3300 -3300 -3300 -3300 -3300 -3300 -3300 -3300 -3300 -3300 -3300 -3300 -3300 -3300 -3300 -3300 -3300 -3300 -3300 -3300 -3300 -3300 -3300 -3300 -3300 -3300 -3300 -3300 -3300 -3300 -3300 -3300 -3300 -3300 -3300 -3300 -3300 -3300 -3300 -3300 -3300 -3300 -3300 -3300 -3300 -3300 -3300 -3300 -3300 -3300 -3300 -3300 -3300 -3300 -3300 -3300 -3300 -3300 -3300 -3300 -3300 -3300 -3300 -3300 -3300 -3300 -3300 -3300 -3300 -3300 -3300 -3300 -3300 -3300 -3300 -3300 -3300 -3300 -3300 -3300 -3300 -3300 -3300 -3300 -3300 -3300 -3300 -3300 -3300 
-3300 -3300 -3300 -3300 -3300 -3300 -3300 -3300 -3300 -3300 -3300 -3300 -3300 -3300 -3300 -3300 -3300 -3300 -3300 -3300 -3300 -3300 -3300 -3300 -3300 -3300 -3300 -3300 -3300 -3300 -3300 -3300 -3300 -3300 -3300 -3300 -3300 -3300 -3300 -3300 -3300 -3300 -3300 -3300 -3300 -3300 -3300 -3300 -3300 -3300 -3300 -3300 -3300 -3300 -3300 -3300 -3300 -3300 -3300 -3300 -3300 -3300 -3300 -3300 -3300 -3300 -3300 -3300 -3300 -3300 -3300 -3300 -3300 -3300 -3300 -3300 -3300 -3300 -3300 -3300 -3300 -3300 -3300 -3300 -3300 -3300 -3300 -3300 -3300 -3300 -3300 -3300 -3300 -3300 -3300 -3300 -3300 -3300 -3300 -3300 
-3300 -3300 -3300 -3300 -3300 -3300 -3300 -3300 -3300 -3300 -3300 -3300 -3300 -3300 -3300 -3300 -3300 -3300 -3300 -3300 -3300 -3300 -3300 -3300 -3300 -3300 -3300 -3300 -3300 -3300 -3300 -3300 -3300 -3300 -3300 -3300 -3300 -3300 -3300 -3300 -3300 -3300 -3300 -3300 -3300 -3300 -3300 -3300 -3300 -3300 -3300 -3300 -3300 -3300 -3300 -3300 -3300 -3300 -3300 -3300 -3300 -3300 -3300 -3300 -3300 -3300 -3300 -3300 -3300 -3300 -3300 -3300 -3300 -3300 -3300 -3300 -3300 -3300 -3300 -3300 -3300 -3300 -3300 -3300 -3300 -3300 -3300 -3300 -3300 -3300 -3300 -3300 -3300 -3300 -3300 -3300 -3300 -3300 -3300 -3300 
3044.705 3032.2173 3020.0317 3008.0474 2996.0632 2983.9783 2971.994 2960.0098 2948.932 2938.0554 2927.0781 2916.2017 2905.1238 2894.1467 2883.4717 2871.6887 2822.4426 2263.8152 1549.4934 1033.1635 573.8342 -195.57495 -730.5359 -1347.4731 -2174.8901 -2999.286 3196.17 2896.6643 2912.0728 2927.3804 2942.688 2958.2976 3299.8992 -2714.987 -1980.1208 -1238.8092 -450.97046 356.20422 1435.7941 2486.8835 2973.6052 2963.031 2951.4495 2939.7673 2927.9846 2916.101 2904.6204 2892.334 2880.9539 2869.574 2858.1938 2847.0154 2835.8367 2824.8596 2814.1846 2803.5095 2791.5251 2676.718 2100.2654 1487.4573 -1.6113281 -1594.6106 2783.5693 2800.891 2817.6086 2833.9233 2849.7344 2844.1956 2833.4197 2822.2412 2810.962 2799.6826 2788.3025 2777.124 2765.8447 2755.1697 2744.7966 2734.5244 2724.1516 2713.8794 2703.4058 2209.735 -182.08008 -2745.1995 2717.3035 2736.3372 2754.5654 2771.8872 2788.4033 2804.718 2820.7305 2836.441 2851.95 2867.2576 2882.2632 2897.2686 2911.972 2926.6753 2941.1772 2955.5786 
-3300 -3300 -3300 -3300 -3300 -3300 -3300 -3300 -3300 -3300 -3300 -3300 -3300 -3300 -3300 -3300 -3300 -3300 -3300 -3300 -3300 -3300 -3300 -3300 -3300 -3300 -3300 -3300 -3300 -3300 -3300 -3300 -3300 -3300 -3300 -3300 -3300 -3300 -3300 -3300 -3300 -3300 -3300 -3300 -3300 -3300 -3300 -3300 -3300 -3300 -3300 -3300 -3300 -3300 -3300 -3300 -3300 -3300 -3300 -3300 -3300 -3300 -3300 -3300 -3300 -3300 -3300 -3300 -3300 -3300 -3300 -3300 -3300 -3300 -3300 -3300 -3300 -3300 -3300 -3300 -3300 -3300 -3300 -3300 -3300 -3300 -3300 -3300 -3300 -3300 -3300 -3300 -3300 -3300 -3300 -3300 -3300 -3300 -3300 -3300 
-3300 -3300 -3300 -3300 -3300 -3300 -3300 -3300 -3300 -3300 -3300 -3300 -3300 -3300 -3300 -3300 -3300 -3300 -3300 -3300 -3300 -3300 -3300 -3300 -3300 -3300 -3300 -3300 -3300 -3300 -3300 -3300 -3300 -3300 -3300 -3300 -3300 -3300 -3300 -3300 -3300 -3300 -3300 -3300 -3300 -3300 -3300 -3300 -3300 -3300 -3300 -3300 -3300 -3300 -3300 -3300 -3300 -3300 -3300 -3300 -3300 -3300 -3300 -3300 -3300 -3300 -3300 -3300 -3300 -3300 -3300 -3300 -3300 -3300 -3300 -3300 -3300 -3300 -3300 -3300 -3300 -3300 -3300 -3300 -3300 -3300 -3300 -3300 -3300 -3300 -3300 -3300 -3300 -3300 -3300 -3300 -3300 -3300 -3300 -3300 
-3300 -3300 -3300 -3300 -3300 -3300 -3300 -3300 -3300 -3300 -3300 -3300 -3300 -3300 -3300 -3300 -3300 -3300 -3300 -3300 -3300 -3300 -3300 -3300 -3300 -3300 -3300 -3300 -3300 -3300 -3300 -3300 -3300 -3300 -3300 -3300 -3300 -3300 -3300 -3300 -3300 -3300 -3300 -3300 -3300 -3300 -3300 -3300 -3300 -3300 -3300 -3300 -3300 -3300 -3300 -3300 -3300 -3300 -3300 -3300 -3300 -3300 -3300 -3300 -3300 -3300 -3300 -3300 -3300 -3300 -3300 -3300 -3300 -3300 -3300 -3300 -3300 -3300 -3300 -3300 -3300 -3300 -3300 -3300 -3300 -3300 -3300 -3300 -3300 -3300 -3300 -3300 -3300 -3300 -3300 -3300 -3300 -3300 -3300 -3300 

-3300 -3300 -3300 -3300 -3300 -3300 -3300 -3300 -3300 -3300 -3300 -3300 -3300 -3300 -3300 -3300 -3300 -3300 -3300 -3300 -3300 -3300 -3300 -3300 -3300 -3300 -3300 -3300 -3300 -3300 -3300 -3300 -3300 -3300 -3300 -3300 -3300 -3300 -3300 -3300 -3300 -3300 -3300 -3300 -3300 -3300 -3300 -3300 -3300 -3300 -3300 -3300 -3300 -3300 -3300 -3300 -3300 -3300 -3300 -3300 -3300 -3300 -3300 -3300 -3300 -3300 -3300 -3300 -3300 -3300 -3300 -3300 -3300 -3300 -3300 -3300 -3300 -3300 -3300 -3300 -3300 -3300 -3300 -3300 -3300 -3300 -3300 -3300 -3300 -3300 -3300 -3300 -3300 -3300 -3300 -3300 -3300 -3300 -3300 -3300 
-3300 -3300 -3300 -3300 -3300 -3300 -3300 -3300 -3300 -3300 -3300 -3300 -3300 -3300 -3300 -3300 -3300 -3300 -3300 -3300 -3300 -3300 -3300 -3300 -3300 -3300 -3300 -3300 -3300 -3300 -3300 -3300 -3300 -3300 -3300 -3300 -3300 -3300 -3300 -3300 -3300 -3300 -3300 -3300 -3300 -3300 -3300 -3300 -3300 -3300 -3300 -3300 -3300 -3300 -3300 -3300 -3300 -3300 -3300 -3300 -3300 -3300 -3300 -3300 -3300 -3300 -3300 -3300 -3300 -3300 -3300 -3300 -3300 -3300 -3300 -3300 -3300 -3300 -3300 -3300 -3300 -3300 -3300 -3300 -3300 -3300 -3300 -3300 -3300 -3300 -3300 -3300 -3300 -3300 -3300 -3300 -3300 -3300 -3300 -3300 
-3300 -3300 -3300 -3300 -3300 -3300 -3300 -3300 -3300 -3300 -3300 -3300 -3300 -3300 -3300 -3300 -3300 -3300 -3300 -3300 -3300 -3300 -3300 -3300 -3300 -3300 -3300 -3300 -3300 -3300 -3300 -3300 -3300 -3300 -3300 -3300 -3300 -3300 -3300 -3300 -3300 -3300 -3300 -3300 -3300 -3300 -3300 -3300 -3300 -3300 -3300 -3300 -3300 -3300 -3300 -3300 -3300 -3300 -3300 -3300 -3300 -3300 -3300 -3300 -3300 -3300 -3300 -3300 -3300 -3300 -3300 -3300 -3300 -3300 -3300 -3300 -3300 -3300 -3300 -3300 -3300 -3300 -3300 -3300 -3300 -3300 -3300 -3300 -3300 -3300 -3300 -3300 -3300 -3300 -3300 -3300 -3300 -3300 -3300 -3300 
-3300 -3300 -3300 -3300 -3300 -3300 -3300 -3300 -3300 -3300 -3300 -3300 -3300 -3300 -3300 -3300 -3300 -3300 -3300 -3300 -3300 -3300 -3300 -3300 -3300 -3300 -3300 -3300 -3300 -3300 -3300 -3300 -3300 -3300 -3300 -3300 -3300 -3300 -3300 -3300 -3300 -3300 -3300 -3300 -3300 -3300 -3300 -3300 -3300 -3300 -3300 -3300 -3300 -3300 -3300 -3300 -3300 -3300 -3300 -3300 -3300 -3300 -3300 -3300 -3300 -3300 -3300 -3300 -3300 -3300 -3300 -3300 -3300 -3300 -3300 -3300 -3300 -3300 -3300 -3300 -3300 -3300 -3300 -3300 -3300 -3300 -3300 -3300 -3300 -3300 -3300 -3300 -3300 -3300 -3300 -3300 -3300 -3300 -3300 -3300 
2969.9797 2983.9783 2998.3794 3012.378 3026.477 3040.274 3053.9702 3067.9688 3081.8665 3095.2605 3108.8562 3122.351 3135.846 3149.3408 3162.6343 3175.9277 3189.4226 3202.5146 3215.808 3229.0007 3242.0928 3255.3862 3268.2769 3281.4697 3294.2595 -3292.6482 -3279.657 -3266.867 -3254.0771 -3241.287 -3228.598 -3215.9087 -3203.3203 -3190.8325 -3178.3447 -3165.857 -2939.6667 -2589.9077 -2278.5186 -2025.0366 -1762.4908 -1403.9703 -1028.6316 -726.10474 -495.98694 -424.18213 -378.5614 -179.96521 -30.514526 56.799316 32.528687 -52.166748 -106.75049 -160.32715 -283.79517 -436.06567 -514.5172 -553.5919 -506.662 -465.67383 -475.2411 -485.5133 -418.9453 -328.71094 -269.2932 -96.8811 70.09277 264.2578 361.64246 555.20325 891.16516 1216.452 1477.7893 1709.2163 1933.0902 2188.0828 2432.199 2596.4539 2698.7732 2676.0132 2763.1255 2951.4495 3070.7886 3189.0198 3295.8708 3295.468 3211.7798 3157.196 3097.0732 3054.4739 2822.946 2568.457 2399.3682 2346.0938 2168.7468 1930.9753 1720.1935 1621.9025 1571.9513 1581.8207 
-3300 -3300 -3300 -3300 -3300 -3300 -3300 -3300 -3300 -3300 -3300 -3300 -3300 -3300 -3300 -3300 -3300 -3300 -3300 -3300 -3300 -3300 -3300 -3300 -3300 -3300 -3300 -3300 -3300 -3300 -3300 -3300 -3300 -3300 -3300 -3300 -3300 -3300 -3300 -3300 -3300 -3300 -3300 -3300 -3300 -3300 -3300 -3300 -3300 -3300 -3300 -3300 -3300 -3300 -3300 -3300 -3300 -3300 -3300 -3300 -3300 -3300 -3300 -3300 -3300 -3300 -3300 -3300 -3300 -3300 -3300 -3300 -3300 -3300 -3300 -3300 -3300 -3300 -3300 -3300 -3300 -3300 -3300 -3300 -3300 -3300 -3300 -3300 -3300 -3300 -3300 -3300 -3300 -3300 -3300 -3300 -3300 -3300 -3300 -3300 
-3300 -3300 -3300 -3300 -3300 -3300 -3300 -3300 -3300 -3300 -3300 -3300 -3300 -3300 -3300 -3300 -3300 -3300 -3300 -3300 -3300 -3300 -3300 -3300 -3300 -3300 -3300 -3300 -3300 -3300 -3300 -3300 -3300 -3300 -3300 -3300 -3300 -3300 -3300 -3300 -3300 -3300 -3300 -3300 -3300 -3300 -3300 -3300 -3300 -3300 -3300 -3300 -3300 -3300 -3300 -3300 -3300 -3300 -3300 -3300 -3300 -3300 -3300 -3300 -3300 -3300 -3300 -3300 -3300 -3300 -3300 -3300 -3300 -3300 -3300 -3300 -3300 -3300 -3300 -3300 -3300 -3300 -3300 -3300 -3300 -3300 -3300 -3300 -3300 -3300 -3300 -3300 -3300 -3300 -3300 -3300 -3300 -3300 -3300 -3300 
-3300 -3300 -3300 -3300 -3300 -3300 -3300 -3300 -3300 -3300 -3300 -3300 -3300 -3300 -3300 -3300 -3300 -3300 -3300 -3300 -3300 -3300 -3300 -3300 -3300 -3300 -3300 -3300 -3300 -3300 -3300 -3300 -3300 -3300 -3300 -3300 -3300 -3300 -3300 -3300 -3300 -3300 -3300 -3300 -3300 -3300 -3300 -3300 -3300 -3300 -3300 -3300 -3300 -3300 -3300 -3300 -3300 -3300 -3300 -3300 -3300 -3300 -3300 -3300 -3300 -3300 -3300 -3300 -3300 -3300 -3300 -3300 -3300 -3300 -3300 -3300 -3300 -3300 -3300 -3300 -3300 -3300 -3300 -3300 -3300 -3300 -3300 -3300 -3300 -3300 -3300 -3300 -3300 -3300 -3300 -3300 -3300 -3300 -3300 -3300 

-3300 -3300 -3300 -3300 -3300 -3300 -3300 -3300 -3300 -3300 -3300 -3300 -3300 -3300 -3300 -3300 -3300 -3300 -3300 -3300 -3300 -3300 -3300 -3300 -3300 -3300 -3300 -3300 -3300 -3300 -3300 -3300 -3300 -3300 -3300 -3300 -3300 -3300 -3300 -3300 -3300 -3300 -3300 -3300 -3300 -3300 -3300 -3300 -3300 -3300 -3300 -3300 -3300 -3300 -3300 -3300 -3300 -3300 -3300 -3300 -3300 -3300 -3300 -3300 -3300 -3300 -3300 -3300 -3300 -3300 -3300 -3300 -3300 -3300 -3300 -3300 -3300 -3300 -3300 -3300 -3300 -3300 -3300 -3300 -3300 -3300 -3300 -3300 -3300 -3300 -3300 -3300 -3300 -3300 -3300 -3300 -3300 -3300 -3300 -3300 
-3300 -3300 -3300 -3300 -3300 -3300 -3300 -3300 -3300 -3300 -3300 -3300 -3300 -3300 -3300 -3300 -3300 -3300 -3300 -3300 -3300 -3300 -3300 -3300 -3300 -3300 -3300 -3300 -3300 -3300 -3300 -3300 -3300 -3300 -3300 -3300 -3300 -3300 -3300 -3300 -3300 -3300 -3300 -3300 -3300 -3300 -3300 -3300 -3300 -3300 -3300 -3300 -3300 -3300 -3300 -3300 -3300 -3300 -3300 -3300 -3300 -3300 -3300 -3300 -3300 -3300 -3300 -3300 -3300 -3300 -3300 -3300 -3300 -3300 -3300 -3300 -3300 -3300 -3300 -3300 -3300 -3300 -3300 -3300 -3300 -3300 -3300 -3300 -3300 -3300 -3300 -3300 -3300 -3300 -3300 -3300 -3300 -3300 -3300 -3300 
-3300 -3300 -3300 -3300 -3300 -3300 -3300 -3300 -3300 -3300 -3300 -3300 -3300 -3300 -3300 -3300 -3300 -3300 -3300 -3300 -3300 -3300 -3300 -3300 -3300 -3300 -3300 -3300 -3300 -3300 -3300 -3300 -3300 -3300 -3300 -3300 -3300 -3300 -3300 -3300 -3300 -3300 -3300 -3300 -3300 -3300 -3300 -3300 -3300 -3300 -3300 -3300 -3300 -3300 -3300 -3300 -3300 -3300 -3300 -3300 -3300 -3300 -3300 -3300 -3300 -3300 -3300 -3300 -3300 -3300 -3300 -3300 -3300 -3300 -3300 -3300 -3300 -3300 -3300 -3300 -3300 -3300 -3300 -3300 -3300 -3300 -3300 -3300 -3300 -3300 -3300 -3300 -3300 -3300 -3300 -3300 -3300 -3300 -3300 -3300 
-3300 -3300 -3300 -3300 -3300 -3300 -3300 -3300 -3300 -3300 -3300 -3300 -3300 -3300 -3300 -3300 -3300 -3300 -3300 -3300 -3300 -3300 -3300 -3300 -3300 -3300 -3300 -3300 -3300 -3300 -3300 -3300 -3300 -3300 -3300 -3300 -3300 -3300 -3300 -3300 -3300 -3300 -3300 -3300 -3300 -3300 -3300 -3300 -3300 -3300 -3300 -3300 -3300 -3300 -3300 -3300 -3300 -3300 -3300 -3300 -3300 -3300 -3300 -3300 -3300 -3300 -3300 -3300 -3300 -3300 -3300 -3300 -3300 -3300 -3300 -3300 -3300 -3300 -3300 -3300 -3300 -3300 -3300 -3300 -3300 -3300 -3300 -3300 -3300 -3300 -3300 -3300 -3300 -3300 -3300 -3300 -3300 -3300 -3300 -3300 
1568.7286 1555.6366 1475.473 1436.9019 1393.4967 1343.1427 1432.37 1599.1425 1552.2125 1597.7325 1756.1462 2107.315 2759.7014 3111.676 3100.0945 3088.4124 3076.7302 3065.048 3053.366 3042.288 3031.1096 3019.8303 3008.3496 2996.869 2985.5896 2974.2095 2962.9302 2950.8452 2939.7673 2928.6895 2917.6116 2906.6345 2895.6572 2884.8816 2874.1057 2863.33 2852.5542 2841.98 2831.204 2820.63 2809.9548 2799.179 2788.8062 2778.131 2767.758 2757.2844 2747.0122 2735.9343 2725.763 2711.563 1966.3239 2698.8738 2690.4143 2681.6528 2672.6897 2663.324 2653.8574 2644.3909 2629.1838 1608.5083 714.3219 -215.1123 -1397.9279 -2738.0493 2656.9792 2680.3435 2700.7874 2720.3247 2738.3513 2755.673 2772.3906 2788.7053 2804.5166 2820.227 2835.5347 2850.7415 2865.6462 2880.551 2895.2544 2909.7563 2924.1577 2938.6597 2952.7588 2966.9585 2981.0576 2994.9553 3009.0544 3022.7507 3036.447 3050.0427 3063.739 3077.4353 3090.8293 3104.3242 3117.819 3131.2134 3144.406 3157.6995 3170.993 3184.1858 
-3300 -3300 -3300 -3300 -3300 -3300 -3300 -3300 -3300 -3300 -3300 -3300 -3300 -3300 -3300 -3300 -3300 -3300 -3300 -3300 -3300 -3300 -3300 -3300 -3300 -3300 -3300 -3300 -3300 -3300 -3300 -3300 -3300 -3300 -3300 -3300 -3300 -3300 -3300 -3300 -3300 -3300 -3300 -3300 -3300 -3300 -3300 -3300 -3300 -3300 -3300 -3300 -3300 -3300 -3300 -3300 -3300 -3300 -3300 -3300 -3300 -3300 -3300 -3300 -3300 -3300 -3300 -3300 -3300 -3300 -3300 -3300 -3300 -3300 -3300 -3300 -3300 -3300 -3300 -3300 -3300 -3300 -3300 -3300 -3300 -3300 -3300 -3300 -3300 -3300 -3300 -3300 -3300 -3300 -3300 -3300 -3300 -3300 -3300 -3300 
-3300 -3300 -3300 -3300 -3300 -3300 -3300 -3300 -3300 -3300 -3300 -3300 -3300 -3300 -3300 -3300 -3300 -3300 -3300 -3300 -3300 -3300 -3300 -3300 -3300 -3300 -3300 -3300 -3300 -3300 -3300 -3300 -3300 -3300 -3300 -3300 -3300 -3300 -3300 -3300 -3300 -3300 -3300 -3300 -3300 -3300 -3300 -3300 -3300 -3300 -3300 -3300 -3300 -3300 -3300 -3300 -3300 -3300 -3300 -3300 -3300 -3300 -3300 -3300 -3300 -3300 -3300 -3300 -3300 -3300 -3300 -3300 -3300 -3300 -3300 -3300 -3300 -3300 -3300 -3300 -3300 -3300 -3300 -3300 -3300 -3300 -3300 -3300 -3300 -3300 -3300 -3300 -3300 -3300 -3300 -3300 -3300 -3300 -3300 -3300 
-3300 -3300 -3300 -3300 -3300 -3300 -3300 -3300 -3300 -3300 -3300 -3300 -3300 -3300 -3300 -3300 -3300 -3300 -3300 -3300 -3300 -3300 -3300 -3300 -3300 -3300 -3300 -3300 -3300 -3300 -3300 -3300 -3300 -3300 -3300 -3300 -3300 -3300 -3300 -3300 -3300 -3300 -3300 -3300 -3300 -3300 -3300 -3300 -3300 -3300 -3300 -3300 -3300 -3300 -3300 -3300 -3300 -3300 -3300 -3300 -3300 -3300 -3300 -3300 -3300 -3300 -3300 -3300 -3300 -3300 -3300 -3300 -3300 -3300 -3300 -3300 -3300 -3300 -3300 -3300 -3300 -3300 -3300 -3300 -3300 -3300 -3300 -3300 -3300 -3300 -3300 -3300 -3300 -3300 -3300 -3300 -3300 -3300 -3300 -3300 

-3300 -3300 -3300 -3300 -3300 -3300 -3300 -3300 -3300 -3300 -3300 -3300 -3300 -3300 -3300 -3300 -3300 -3300 -3300 -3300 -3300 -3300 -3300 -3300 -3300 -3300 -3300 -3300 -3300 -3300 -3300 -3300 -3300 -3300 -3300 -3300 -3300 -3300 -3300 -3300 -3300 -3300 -3300 -3300 -3300 -3300 -3300 -3300 -3300 -3300 -3300 -3300 -3300 -3300 -3300 -3300 -3300 -3300 -3300 -3300 -3300 -3300 -3300 -3300 -3300 -3300 -3300 -3300 -3300 -3300 -3300 -3300 -3300 -3300 -3300 -3300 -3300 -3300 -3300 -3300 -3300 -3300 -3300 -3300 -3300 -3300 -3300 -3300 -3300 -3300 -3300 -3300 -3300 -3300 -3300 -3300 -3300 -3300 -3300 -3300 
-3300 -3300 -3300 -3300 -3300 -3300 -3300 -3300 -3300 -3300 -3300 -3300 -3300 -3300 -3300 -3300 -3300 -3300 -3300 -3300 -3300 -3300 -3300 -3300 -3300 -3300 -3300 -3300 -3300 -3300 -3300 -3300 -3300 -3300 -3300 -3300 -3300 -3300 -3300 -3300 -3300 -3300 -3300 -3300 -3300 -3300 -3300 -3300 -3300 -3300 -3300 -3300 -3300 -3300 -3300 -3300 -3300 -3300 -3300 -3300 -3300 -3300 -3300 -3300 -3300 -3300 -3300 -3300 -3300 -3300 -3300 -3300 -3300 -3300 -3300 -3300 -3300 -3300 -3300 -3300 -3300 -3300 -3300 -3300 -3300 -3300 -3300 -3300 -3300 -3300 -3300 -3300 -3300 -3300 -3300 -3300 -3300 -3300 -3300 -3300 
-3300 -3300 -3300 -3300 -3300 -3300 -3300 -3300 -3300 -3300 -3300 -3300 -3300 -3300 -3300 -3300 -3300 -3300 -3300 -3300 -3300 -3300 -3300 -3300 -3300 -3300 -3300 -3300 -3300 -3300 -3300 -3300 -3300 -3300 -3300 -3300 -3300 -3300 -3300 -3300 -3300 -3300 -3300 -3300 -3300 -3300 -3300 -3300 -3300 -3300 -3300 -3300 -3300 -3300 -3300 -3300 -3300 -3300 -3300 -3300 -3300 -3300 -3300 -3300 -3300 -3300 -3300 -3300 -3300 -3300 -3300 -3300 -3300 -3300 -3300 -3300 -3300 -3300 -3300 -3300 -3300 -3300 -3300 -3300 -3300 -3300 -3300 -3300 -3300 -3300 -3300 -3300 -3300 -3300 -3300 -3300 -3300 -3300 -3300 -3300 
-3300 -3300 -3300 -3300 -3300 -3300 -3300 -3300 -3300 -3300 -3300 -3300 -3300 -3300 -3300 -3300 -3300 -3300 -3300 -3300 -3300 -3300 -3300 -3300 -3300 -3300 -3300 -3300 -3300 -3300 -3300 -3300 -3300 -3300 -3300 -3300 -3300 -3300 -3300 -3300 -3300 -3300 -3300 -3300 -3300 -3300 -3300 -3300 -3300 -3300 -3300 -3300 -3300 -3300 -3300 -3300 -3300 -3300 -3300 -3300 -3300 -3300 -3300 -3300 -3300 -3300 -3300 -3300 -3300 -3300 -3300 -3300 -3300 -3300 -3300 -3300 -3300 -3300 -3300 -3300 -3300 -3300 -3300 -3300 -3300 -3300 -3300 -3300 -3300 -3300 -3300 -3300 -3300 -3300 -3300 -3300 -3300 -3300 -3300 -3300 
3197.3784 3210.269 3223.5625 3236.6545 3249.646 3262.6372 3275.4272 3288.6199 3299.8992 -3285.6995 -3273.0103 -3260.1196 -3247.4304 -3234.6404 -3222.1526 -3209.4634 -3197.0764 -3184.4878 -3172.2014 -3159.915 -3147.6287 -3135.2417 -3123.3582 -3111.2732 -3099.2888 -3087.3047 -3075.3203 -3063.5376 -3052.1575 -3040.3748 -3028.7932 -3017.4133 -3006.134 -2994.754 -2983.4746 -2972.3967 -2961.3188 -2950.3418 -2939.264 -2928.488 -2917.7124 -2907.138 -2896.2615 -2885.6873 -2875.1128 -2864.6392 -2854.065 -2843.692 -2833.5205 -2823.2483 -2812.976 -2802.9053 -2792.8345 -2782.8643 -2772.7935 -2762.924 -2753.0547 -2743.3867 -2733.5173 -2723.8494 -2714.1814 -2704.9163 -2286.2732 -1361.7737 -350.66528 461.6455 1089.3585 1448.584 2125.6438 2675.1067 2946.414 2649.9297 1177.3773 -165.76538 -1188.5559 -2042.0563 -2731.7046 -2720.2239 -2709.0454 -2698.169 -2687.393 -2677.1208 -2666.8486 -2657.08 -2647.3113 -2637.9456 -2628.2776 -2619.113 -2609.9487 -2600.885 -2591.8213 -2582.8582 -2573.7944 -2564.9321 -2556.0698 -2547.3083 -2538.446 -2529.7852 -2521.1243 -2512.3625 
-3300 -3300 -3300 -3300 -3300 -3300 -3300 -3300 -3300 -3300 -3300 -3300 -3300 -3300 -3300 -3300 -3300 -3300 -3300 -3300 -3300 -3300 -3300 -3300 -3300 -3300 -3300 -3300 -3300 -3300 -3300 -3300 -3300 -3300 -3300 -3300 -3300 -3300 -3300 -3300 -3300 -3300 -3300 -3300 -3300 -3300 -3300 -3300 -3300 -3300 -3300 -3300 -3300 -3300 -3300 -3300 -3300 -3300 -3300 -3300 -3300 -3300 -3300 -3300 -3300 -3300 -3300 -3300 -3300 -3300 -3300 -3300 -3300 -3300 -3300 -3300 -3300 -3300 -3300 -3300 -3300 -3300 -3300 -3300 -3300 -3300 -3300 -3300 -3300 -3300 -3300 -3300 -3300 -3300 -3300 -3300 -3300 -3300 -3300 -3300 
-3300 -3300 -3300 -3300 -3300 -3300 -3300 -3300 -3300 -3300 -3300 -3300 -3300 -3300 -3300 -3300 -3300 -3300 -3300 -3300 -3300 -3300 -3300 -3300 -3300 -3300 -3300 -3300 -3300 -3300 -3300 -3300 -3300 -3300 -3300 -3300 -3300 -3300 -3300 -3300 -3300 -3300 -3300 -3300 -3300 -3300 -3300 -3300 -3300 -3300 -3300 -3300 -3300 -3300 -3300 -3300 -3300 -3300 -3300 -3300 -3300 -3300 -3300 -3300 -3300 -3300 -3300 -3300 -3300 -3300 -3300 -3300 -3300 -3300 -3300 -3300 -3300 -3300 -3300 -3300 -3300 -3300 -3300 -3300 -3300 -3300 -3300 -3300 -3300 -3300 -3300 -3300 -3300 -3300 -3300 -3300 -3300 -3300 -3300 -3300 
-3300 -3300 -3300 -3300 -3300 -3300 -3300 -3300 -3300 -3300 -3300 -3300 -3300 -3300 -3300 -3300 -3300 -3300 -3300 -3300 -3300 -3300 -3300 -3300 -3300 -3300 -3300 -3300 -3300 -3300 -3300 -3300 -3300 -3300 -3300 -3300 -3300 -3300 -3300 -3300 -3300 -3300 -3300 -3300 -3300 -3300 -3300 -3300 -3300 -3300 -3300 -3300 -3300 -3300 -3300 -3300 -3300 -3300 -3300 -3300 -3300 -3300 -3300 -3300 -3300 -3300 -3300 -3300 -3300 -3300 -3300 -3300 -3300 -3300 -3300 -3300 -3300 -3300 -3300 -3300 -3300 -3300 -3300 -3300 -3300 -3300 -3300 -3300 -3300 -3300 -3300 -3300 -3300 -3300 -3300 -3300 -3300 -3300 -3300 -3300 

-3300 -3300 -3300 -3300 -3300 -3300 -3300 -3300 -3300 -3300 -3300 -3300 -3300 -3300 -3300 -3300 -3300 -3300 -3300 -3300 -3300 -3300 -3300 -3300 -3300 -3300 -3300 -3300 -3300 -3300 -3300 -3300 -3300 -3300 -3300 -3300 -3300 -3300 -3300 -3300 -3300 -3300 -3300 -3300 -3300 -3300 -3300 -3300 -3300 -3300 -3300 -3300 -3300 -3300 -3300 -3300 -3300 -3300 -3300 -3300 -3300 -3300 -3300 -3300 -3300 -3300 -3300 -3300 -3300 -3300 -3300 -3300 -3300 -3300 -3300 -3300 -3300 -3300 -3300 -3300 -3300 -3300 -3300 -3300 -3300 -3300 -3300 -3300 -3300 -3300 -3300 -3300 -3300 -3300 -3300 -3300 -3300 -3300 -3300 -3300 -3300 -3300 -3300 -3300 -3300 -3300 -3300 -3300 -3300 -3300 -3300 -3300 -3300 -3300 -3300 -3300 -3300 -3300 -3300 -3300 
-3300 -3300 -3300 -3300 -3300 -3300 -3300 -3300 -3300 -3300 -3300 -3300 -3300 -3300 -3300 -3300 -3300 -3300 -3300 -3300 -3300 -3300 -3300 -3300 -3300 -3300 -3300 -3300 -3300 -3300 -3300 -3300 -3300 -3300 -3300 -3300 -3300 -3300 -3300 -3300 -3300 -3300 -3300 -3300 -3300 -3300 -3300 -3300 -3300 -3300 -3300 -3300 -3300 -3300 -3300 -3300 -3300 -3300 -3300 -3300 -3300 -3300 -3300 -3300 -3300 -3300 -3300 -3300 -3300 -3300 -3300 -3300 -3300 -3300 -3300 -3300 -3300 -3300 -3300 -3300 -3300 -3300 -3300 -3300 -3300 -3300 -3300 -3300 -3300 -3300 -3300 -3300 -3300 -3300 -3300 -3300 -3300 -3300 -3300 -3300 -3300 -3300 -3300 -3300 -3300 -3300 -3300 -3300 -3300 -3300 -3300 -3300 -3300 -3300 -3300 -3300 -3300 -3300 -3300 -3300 
-3300 -3300 -3300 -3300 -3300 -3300 -3300 -3300 -3300 -3300 -3300 -3300 -3300 -3300 -3300 -3300 -3300 -3300 -3300 -3300 -3300 -3300 -3300 -3300 -3300 -3300 -3300 -3300 -3300 -3300 -3300 -3300 -3300 -3300 -3300 -3300 -3300 -3300 -3300 -3300 -3300 -3300 -3300 -3300 -3300 -3300 -3300 -3300 -3300 -3300 -3300 -3300 -3300 -3300 -3300 -3300 -3300 -3300 -3300 -3300 -3300 -3300 -3300 -3300 -3300 -3300 -3300 -3300 -3300 -3300 -3300 -3300 -3300 -3300 -3300 -3300 -3300 -3300 -3300 -3300 -3300 -3300 -3300 -3300 -3300 -3300 -3300 -3300 -3300 -3300 -3300 -3300 -3300 -3300 -3300 -3300 -3300 -3300 -3300 -3300 -3300 -3300 -3300 -3300 -3300 -3300 -3300 -3300 -3300 -3300 -3300 -3300 -3300 -3300 -3300 -3300 -3300 -3300 -3300 -3300 
-3300 -3300 -3300 -3300 -3300 -3300 -3300 -3300 -3300 -3300 -3300 -3300 -3300 -3300 -3300 -3300 -3300 -3300 -3300 -3300 -3300 -3300 -3300 -3300 -3300 -3300 -3300 -3300 -3300 -3300 -3300 -3300 -3300 -3300 -3300 -3300 -3300 -3300 -3300 -3300 -3300 -3300 -3300 -3300 -3300 -3300 -3300 -3300 -3300 -3300 -3300 -3300 -3300 -3300 -3300 -3300 -3300 -3300 -3300 -3300 -3300 -3300 -3300 -3300 -3300 -3300 -3300 -3300 -3300 -3300 -3300 -3300 -3300 -3300 -3300 -3300 -3300 -3300 -3300 -3300 -3300 -3300 -3300 -3300 -3300 -3300 -3300 -3300 -3300 -3300 -3300 -3300 -3300 -3300 -3300 -3300 -3300 -3300 -3300 -3300 -3300 -3300 -3300 -3300 -3300 -3300 -3300 -3300 -3300 -3300 -3300 -3300 -3300 -3300 -3300 -3300 -3300 -3300 -3300 -3300 
-2503.8025 -2495.343 -2486.6821 -2478.1218 -2469.5618 -2461.203 -2453.1462 -2444.3848 -2436.2273 -2427.8687 -2419.7112 -2411.4531 -2403.296 -2395.1384 -2387.0818 -2379.0251 -2371.0693 -2363.1133 -2355.258 -2347.3022 -2339.447 -2331.491 -2323.7366 -2315.982 -2308.2275 -2300.5737 -2292.7185 -2285.0647 -2277.713 -2270.059 -2262.506 -2254.953 -2247.5005 -2240.149 -2232.6965 -2225.3447 -2217.8923 -2210.5408 -2203.3904 -2195.938 -2188.7878 -2181.8389 -2174.3865 -2167.2363 -2160.086 -2153.0364 -2146.1882 -2138.7358 -2131.8877 -2124.8381 -2117.8894 -2110.8398 -2104.0923 -2097.1436 -2090.2954 -2083.3464 -2076.599 -2069.8516 3299.8992 3299.8992 3299.8992 3299.8992 3299.8992 3299.8992 3299.8992 3299.8992 3299.8992 3299.8992 3299.8992 3299.8992 3299.8992 3299.8992 3299.8992 3299.8992 3299.8992 3299.8992 3299.8992 3299.8992 3299.8992 3299.8992 3299.8992 3299.8992 3299.8992 3299.8992 3299.8992 3299.8992 3299.8992 3299.8992 3299.8992 3299.8992 3299.8992 3299.8992 3299.8992 3299.8992 3299.8992 3299.8992 3299.8992 3299.8992 3299.8992 3299.8992 3299.8992 3299.8992 3299.8992 3299.8992 3299.8992 3299.8992 3299.8992 3299.8992 3299.8992 3299.8992 3299.8992 3299.8992 3299.8992 3299.8992 3299.8992 3299.8992 3299.8992 3299.8992 3299.8992 3299.8992 
-3300 -3300 -3300 -3300 -3300 -3300 -3300 -3300 -3300 -3300 -3300 -3300 -3300 -3300 -3300 -3300 -3300 -3300 -3300 -3300 -3300 -3300 -3300 -3300 -3300 -3300 -3300 -3300 -3300 -3300 -3300 -3300 -3300 -3300 -3300 -3300 -3300 -3300 -3300 -3300 -3300 -3300 -3300 -3300 -3300 -3300 -3300 -3300 -3300 -3300 -3300 -3300 -3300 -3300 -3300 -3300 -3300 -3300 -3300 -3300 -3300 -3300 -3300 -3300 -3300 -3300 -3300 -3300 -3300 -3300 -3300 -3300 -3300 -3300 -3300 -3300 -3300 -3300 -3300 -3300 -3300 -3300 -3300 -3300 -3300 -3300 -3300 -3300 -3300 -3300 -3300 -3300 -3300 -3300 -3300 -3300 -3300 -3300 -3300 -3300 -3300 -3300 -3300 -3300 -3300 -3300 -3300 -3300 -3300 -3300 -3300 -3300 -3300 -3300 -3300 -3300 -3300 -3300 -3300 -3300 
-3300 -3300 -3300 -3300 -3300 -3300 -3300 -3300 -3300 -3300 -3300 -3300 -3300 -3300 -3300 -3300 -3300 -3300 -3300 -3300 -3300 -3300 -3300 -3300 -3300 -3300 -3300 -3300 -3300 -3300 -3300 -3300 -3300 -3300 -3300 -3300 -3300 -3300 -3300 -3300 -3300 -3300 -3300 -3300 -3300 -3300 -3300 -3300 -3300 -3300 -3300 -3300 -3300 -3300 -3300 -3300 -3300 -3300 -3300 -3300 -3300 -3300 -3300 -3300 -3300 -3300 -3300 -3300 -3300 -3300 -3300 -3300 -3300 -3300 -3300 -3300 -3300 -3300 -3300 -3300 -3300 -3300 -3300 -3300 -3300 -3300 -3300 -3300 -3300 -3300 -3300 -3300 -3300 -3300 -3300 -3300 -3300 -3300 -3300 -3300 -3300 -3300 -3300 -3300 -3300 -3300 -3300 -3300 -3300 -3300 -3300 -3300 -3300 -3300 -3300 -3300 -3300 -3300 -3300 -3300 
-3300 -3300 -3300 -3300 -3300 -3300 -3300 -3300 -3300 -3300 -3300 -3300 -3300 -3300 -3300 -3300 -3300 -3300 -3300 -3300 -3300 -3300 -3300 -3300 -3300 -3300 -3300 -3300 -3300 -3300 -3300 -3300 -3300 -3300 -3300 -3300 -3300 -3300 -3300 -3300 -3300 -3300 -3300 -3300 -3300 -3300 -3300 -3300 -3300 -3300 -3300 -3300 -3300 -3300 -3300 -3300 -3300 -3300 -3300 -3300 -3300 -3300 -3300 -3300 -3300 -3300 -3300 -3300 -3300 -3300 -3300 -3300 -3300 -3300 -3300 -3300 -3300 -3300 -3300 -3300 -3300 -3300 -3300 -3300 -3300 -3300 -3300 -3300 -3300 -3300 -3300 -3300 -3300 -3300 -3300 -3300 -3300 -3300 -3300 -3300 -3300 -3300 -3300 -3300 -3300 -3300 -3300 -3300 -3300 -3300 -3300 -3300 -3300 -3300 -3300 -3300 -3300 -3300 -3300 -3300 

-3300 -3300 -3300 -3300 -3300 -3300 -3300 -3300 -3300 -3300 -3300 -3300 -3300 -3300 -3300 -3300 -3300 -3300 -3300 -3300 -3300 -3300 -3300 -3300 -3300 -3300 -3300 -3300 -3300 -3300 -3300 -3300 -3300 -3300 -3300 -3300 -3300 -3300 -3300 -3300 -3300 -3300 -3300 -3300 -3300 -3300 -3300 -3300 -3300 -3300 -3300 -3300 -3300 -3300 -3300 -3300 -3300 -3300 -3300 -3300 -3300 -3300 -3300 -3300 -3300 -3300 -3300 -3300 -3300 -3300 -3300 -3300 -3300 -3300 -3300 -3300 -3300 -3300 -3300 -3300 -3300 -3300 -3300 -3300 -3300 -3300 -3300 -3300 -3300 -3300 -3300 -3300 -3300 -3300 -3300 -3300 -3300 -3300 -3300 -3300 
-3300 -3300 -3300 -3300 -3300 -3300 -3300 -3300 -3300 -3300 -3300 -3300 -3300 -3300 -3300 -3300 -3300 -3300 -3300 -3300 -3300 -3300 -3300 -3300 -3300 -3300 -3300 -3300 -3300 -3300 -3300 -3300 -3300 -3300 -3300 -3300 -3300 -3300 -3300 -3300 -3300 -3300 -3300 -3300 -3300 -3300 -3300 -3300 -3300 -3300 -3300 -3300 -3300 -3300 -3300 -3300 -3300 -3300 -3300 -3300 -3300 -3300 -3300 -3300 -3300 -3300 -3300 -3300 -3300 -3300 -3300 -3300 -3300 -3300 -3300 -3300 -3300 -3300 -3300 -3300 -3300 -3300 -3300 -3300 -3300 -3300 -3300 -3300 -3300 -3300 -3300 -3300 -3300 -3300 -3300 -3300 -3300 -3300 -3300 -3300 
-3300 -3300 -3300 -3300 -3300 -3300 -3300 -3300 -3300 -3300 -3300 -3300 -3300 -3300 -3300 -3300 -3300 -3300 -3300 -3300 -3300 -3300 -3300 -3300 -3300 -3300 -3300 -3300 -3300 -3300 -3300 -3300 -3300 -3300 -3300 -3300 -3300 -3300 -3300 -3300 -3300 -3300 -3300 -3300 -3300 -3300 -3300 -3300 -3300 -3300 -3300 -3300 -3300 -3300 -3300 -3300 -3300 -3300 -3300 -3300 -3300 -3300 -3300 -3300 -3300 -3300 -3300 -3300 -3300 -3300 -3300 -3300 -3300 -3300 -3300 -3300 -3300 -3300 -3300 -3300 -3300 -3300 -3300 -3300 -3300 -3300 -3300 -3300 -3300 -3300 -3300 -3300 -3300 -3300 -3300 -3300 -3300 -3300 -3300 -3300 
-3300 -3300 -3300 -3300 -3300 -3300 -3300 -3300 -3300 -3300 -3300 -3300 -3300 -3300 -3300 -3300 -3300 -3300 -3300 -3300 -3300 -3300 -3300 -3300 -3300 -3300 -3300 -3300 -3300 -3300 -3300 -3300 -3300 -3300 -3300 -3300 -3300 -3300 -3300 -3300 -3300 -3300 -3300 -3300 -3300 -3300 -3300 -3300 -3300 -3300 -3300 -3300 -3300 -3300 -3300 -3300 -3300 -3300 -3300 -3300 -3300 -3300 -3300 -3300 -3300 -3300 -3300 -3300 -3300 -3300 -3300 -3300 -3300 -3300 -3300 -3300 -3300 -3300 -3300 -3300 -3300 -3300 -3300 -3300 -3300 -3300 -3300 -3300 -3300 -3300 -3300 -3300 -3300 -3300 -3300 -3300 -3300 -3300 -3300 -3300 
3299.8992 3017.514 2676.718 2348.8127 2126.248 2059.378 1995.6299 2002.5787 1737.5153 1715.7623 1830.368 2095.3308 2362.6099 2644.995 2903.5125 3154.2754 3299.8992 3299.8992 3292.1448 3279.959 3268.6797 3258.0046 3246.222 3234.439 3222.354 3208.255 3196.5728 3182.9773 3171.1943 3157.901 2932.8186 2512.0605 1865.0116 1206.2805 520.459 -98.39172 -669.4061 -1243.9453 -1791.2933 -2260.089 3162.03 3177.2368 3191.8396 3206.4421 3220.944 3235.3455 3249.8474 3263.9465 3277.8442 3291.8425 3299.8992 -3280.5632 -3266.867 -3253.2715 -3239.7766 -3226.3823 -3213.0889 -3199.8962 -3186.8042 -3173.8127 -3160.922 -3148.233 -3135.3423 -3122.8545 -3110.266 -3097.879 -3085.794 -3073.3062 -3061.2212 -3049.1362 -3037.2527 -3025.2686 -3013.5864 -3001.8035 -2990.2222 -2978.7415 -2967.3613 -2955.9814 -2944.7021 -2933.5234 -2922.345 -2911.0657 -2900.2898 -2889.7156 -2878.4363 -2867.7612 -2857.2876 -2846.4111 -2835.8367 -2825.1616 -2814.688 -2804.3152 -2793.6401 -2783.8713 -2762.5212 -2716.397 -2653.656 -2576.1108 -2562.0117 -2547.9126 
-3300 -3300 -3300 -3300 -3300 -3300 -3300 -3300 -3300 -3300 -3300 -3300 -3300 -3300 -3300 -3300 -3300 -3300 -3300 -3300 -3300 -3300 -3300 -3300 -3300 -3300 -3300 -3300 -3300 -3300 -3300 -3300 -3300 -3300 -3300 -3300 -3300 -3300 -3300 -3300 -3300 -3300 -3300 -3300 -3300 -3300 -3300 -3300 -3300 -3300 -3300 -3300 -3300 -3300 -3300 -3300 -3300 -3300 -3300 -3300 -3300 -3300 -3300 -3300 -3300 -3300 -3300 -3300 -3300 -3300 -3300 -3300 -3300 -3300 -3300 -3300 -3300 -3300 -3300 -3300 -3300 -3300 -3300 -3300 -3300 -3300 -3300 -3300 -3300 -3300 -3300 -3300 -3300 -3300 -3300 -3300 -3300 -3300 -3300 -3300 
-3300 -3300 -3300 -3300 -3300 -3300 -3300 -3300 -3300 -3300 -3300 -3300 -3300 -3300 -3300 -3300 -3300 -3300 -3300 -3300 -3300 -3300 -3300 -3300 -3300 -3300 -3300 -3300 -3300 -3300 -3300 -3300 -3300 -3300 -3300 -3300 -3300 -3300 -3300 -3300 -3300 -3300 -3300 -3300 -3300 -3300 -3300 -3300 -3300 -3300 -3300 -3300 -3300 -3300 -3300 -3300 -3300 -3300 -3300 -3300 -3300 -3300 -3300 -3300 -3300 -3300 -3300 -3300 -3300 -3300 -3300 -3300 -3300 -3300 -3300 -3300 -3300 -3300 -3300 -3300 -3300 -3300 -3300 -3300 -3300 -3300 -3300 -3300 -3300 -3300 -3300 -3300 -3300 -3300 -3300 -3300 -3300 -3300 -3300 -3300 
-3300 -3300 -3300 -3300 -3300 -3300 -3300 -3300 -3300 -3300 -3300 -3300 -3300 -3300 -3300 -3300 -3300 -3300 -3300 -3300 -3300 -3300 -3300 -3300 -3300 -3300 -3300 -3300 -3300 -3300 -3300 -3300 -3300 -3300 -3300 -3300 -3300 -3300 -3300 -3300 -3300 -3300 -3300 -3300 -3300 -3300 -3300 -3300 -3300 -3300 -3300 -3300 -3300 -3300 -3300 -3300 -3300 -3300 -3300 -3300 -3300 -3300 -3300 -3300 -3300 -3300 -3300 -3300 -3300 -3300 -3300 -3300 -3300 -3300 -3300 -3300 -3300 -3300 -3300 -3300 -3300 -3300 -3300 -3300 -3300 -3300 -3300 -3300 -3300 -3300 -3300 -3300 -3300 -3300 -3300 -3300 -3300 -3300 -3300 -3300 

-3300 -3300 -3300 -3300 -3300 -3300 -3300 -3300 -3300 -3300 -3300 -3300 -3300 -3300 -3300 -3300 -3300 -3300 -3300 -3300 -3300 -3300 -3300 -3300 -3300 -3300 -3300 -3300 -3300 -3300 -3300 -3300 -3300 -3300 -3300 -3300 -3300 -3300 -3300 -3300 -3300 -3300 -3300 -3300 -3300 -3300 -3300 -3300 -3300 -3300 -3300 -3300 -3300 -3300 -3300 -3300 -3300 -3300 -3300 -3300 -3300 -3300 -3300 -3300 -3300 -3300 -3300 -3300 -3300 -3300 -3300 -3300 -3300 -3300 -3300 -3300 -3300 -3300 -3300 -3300 -3300 -3300 -3300 -3300 -3300 -3300 -3300 -3300 -3300 -3300 -3300 -3300 -3300 -3300 -3300 -3300 -3300 -3300 -3300 -3300 
-3300 -3300 -3300 -3300 -3300 -3300 -3300 -3300 -3300 -3300 -3300 -3300 -3300 -3300 -3300 -3300 -3300 -3300 -3300 -3300 -3300 -3300 -3300 -3300 -3300 -3300 -3300 -3300 -3300 -3300 -3300 -3300 -3300 -3300 -3300 -3300 -3300 -3300 -3300 -3300 -3300 -3300 -3300 -3300 -3300 -3300 -3300 -3300 -3300 -3300 -3300 -3300 -3300 -3300 -3300 -3300 -3300 -3300 -3300 -3300 -3300 -3300 -3300 -3300 -3300 -3300 -3300 -3300 -3300 -3300 -3300 -3300 -3300 -3300 -3300 -3300 -3300 -3300 -3300 -3300 -3300 -3300 -3300 -3300 -3300 -3300 -3300 -3300 -3300 -3300 -3300 -3300 -3300 -3300 -3300 -3300 -3300 -3300 -3300 -3300 
-3300 -3300 -3300 -3300 -3300 -3300 -3300 -3300 -3300 -3300 -3300 -3300 -3300 -3300 -3300 -3300 -3300 -3300 -3300 -3300 -3300 -3300 -3300 -3300 -3300 -3300 -3300 -3300 -3300 -3300 -3300 -3300 -3300 -3300 -3300 -3300 -3300 -3300 -3300 -3300 -3300 -3300 -3300 -3300 -3300 -3300 -3300 -3300 -3300 -3300 -3300 -3300 -3300 -3300 -3300 -3300 -3300 -3300 -3300 -3300 -3300 -3300 -3300 -3300 -3300 -3300 -3300 -3300 -3300 -3300 -3300 -3300 -3300 -3300 -3300 -3300 -3300 -3300 -3300 -3300 -3300 -3300 -3300 -3300 -3300 -3300 -3300 -3300 -3300 -3300 -3300 -3300 -3300 -3300 -3300 -3300 -3300 -3300 -3300 -3300 
-3300 -3300 -3300 -3300 -3300 -3300 -3300 -3300 -3300 -3300 -3300 -3300 -3300 -3300 -3300 -3300 -3300 -3300 -3300 -3300 -3300 -3300 -3300 -3300 -3300 -3300 -3300 -3300 -3300 -3300 -3300 -3300 -3300 -3300 -3300 -3300 -3300 -3300 -3300 -3300 -3300 -3300 -3300 -3300 -3300 -3300 -3300 -3300 -3300 -3300 -3300 -3300 -3300 -3300 -3300 -3300 -3300 -3300 -3300 -3300 -3300 -3300 -3300 -3300 -3300 -3300 -3300 -3300 -3300 -3300 -3300 -3300 -3300 -3300 -3300 -3300 -3300 -3300 -3300 -3300 -3300 -3300 -3300 -3300 -3300 -3300 -3300 -3300 -3300 -3300 -3300 -3300 -3300 -3300 -3300 -3300 -3300 -3300 -3300 -3300 
-2528.6772 -2474.0935 -2417.8984 -2414.1724 -2378.7231 -2319.104 -1859.2712 -1792.1997 -1644.3604 -1529.4525 -1014.23035 -942.0227 -1133.67 -1584.4391 -1996.7377 -2367.1416 -2409.137 -2419.2078 -2385.3699 -2349.2156 -2350.525 -2337.9363 -2305.5083 -2279.2236 -2293.6248 -2293.6248 -2263.8152 -2236.5234 -2257.8735 -2275.1953 -2231.8909 -2181.8389 -2186.27 -2228.9702 -2232.898 -2213.2598 -2210.9436 -2078.6133 -2102.9846 -1987.8754 -1620.9961 -1366.0034 -1070.3247 -377.55432 425.79346 1077.6764 1468.1213 1850.2075 2188.0828 2599.2737 2864.035 2856.482 2701.9958 2580.542 2236.1206 1545.7672 824.7986 208.26416 -281.98242 -674.54224 -1020.77637 -1468.8263 -1962.1948 -2436.4287 -2469.2595 -2459.0881 -2449.3193 -2418.805 -2204.9011 -2094.1223 -1916.5741 -1716.7694 -1439.3188 -1176.0681 -915.6372 -542.3126 -258.21533 60.62622 353.18298 615.82947 839.30054 1116.0461 1404.776 1663.3942 2005.6 2312.9607 2427.4658 2482.3516 2579.6355 2768.2617 2930.5022 3065.2495 3189.0198 3200.3997 3148.4343 2971.591 2802.4016 2734.7258 2602.295 2501.9897 
-3300 -3300 -3300 -3300 -3300 -3300 -3300 -3300 -3300 -3300 -3300 -3300 -3300 -3300 -3300 -3300 -3300 -3300 -3300 -3300 -3300 -3300 -3300 -3300 -3300 -3300 -3300 -3300 -3300 -3300 -3300 -3300 -3300 -3300 -3300 -3300 -3300 -3300 -3300 -3300 -3300 -3300 -3300 -3300 -3300 -3300 -3300 -3300 -3300 -3300 -3300 -3300 -3300 -3300 -3300 -3300 -3300 -3300 -3300 -3300 -3300 -3300 -3300 -3300 -3300 -3300 -3300 -3300 -3300 -3300 -3300 -3300 -3300 -3300 -3300 -3300 -3300 -3300 -3300 -3300 -3300 -3300 -3300 -3300 -3300 -3300 -3300 -3300 -3300 -3300 -3300 -3300 -3300 -3300 -3300 -3300 -3300 -3300 -3300 -3300 
-3300 -3300 -3300 -3300 -3300 -3300 -3300 -3300 -3300 -3300 -3300 -3300 -3300 -3300 -3300 -3300 -3300 -3300 -3300 -3300 -3300 -3300 -3300 -3300 -3300 -3300 -3300 -3300 -3300 -3300 -3300 -3300 -3300 -3300 -3300 -3300 -3300 -3300 -3300 -3300 -3300 -3300 -3300 -3300 -3300 -3300 -3300 -3300 -3300 -3300 -3300 -3300 -3300 -3300 -3300 -3300 -3300 -3300 -3300 -3300 -3300 -3300 -3300 -3300 -3300 -3300 -3300 -3300 -3300 -3300 -3300 -3300 -3300 -3300 -3300 -3300 -3300 -3300 -3300 -3300 -3300 -3300 -3300 -3300 -3300 -3300 -3300 -3300 -3300 -3300 -3300 -3300 -3300 -3300 -3300 -3300 -3300 -3300 -3300 -3300 
-3300 -3300 -3300 -3300 -3300 -3300 -3300 -3300 -3300 -3300 -3300 -3300 -3300 -3300 -3300 -3300 -3300 -3300 -3300 -3300 -3300 -3300 -3300 -3300 -3300 -3300 -3300 -3300 -3300 -3300 -3300 -3300 -3300 -3300 -3300 -3300 -3300 -3300 -3300 -3300 -3300 -3300 -3300 -3300 -3300 -3300 -3300 -3300 -3300 -3300 -3300 -3300 -3300 -3300 -3300 -3300 -3300 -3300 -3300 -3300 -3300 -3300 -3300 -3300 -3300 -3300 -3300 -3300 -3300 -3300 -3300 -3300 -3300 -3300 -3300 -3300 -3300 -3300 -3300 -3300 -3300 -3300 -3300 -3300 -3300 -3300 -3300 -3300 -3300 -3300 -3300 -3300 -3300 -3300 -3300 -3300 -3300 -3300 -3300 -3300 

-3300 -3300 -3300 -3300 -3300 -3300 -3300 -3300 -3300 -3300 -3300 -3300 -3300 -3300 -3300 -3300 -3300 -3300 -3300 -3300 -3300 -3300 -3300 -3300 -3300 -3300 -3300 -3300 -3300 -3300 -3300 -3300 -3300 -3300 -3300 -3300 -3300 -3300 -3300 -3300 -3300 -3300 -3300 -3300 -3300 -3300 -3300 -3300 -3300 -3300 -3300 -3300 -3300 -3300 -3300 -3300 -3300 -3300 -3300 -3300 -3300 -3300 -3300 -3300 -3300 -3300 -3300 -3300 -3300 -3300 -3300 -3300 -3300 -3300 -3300 -3300 -3300 -3300 -3300 -3300 -3300 -3300 -3300 -3300 -3300 -3300 -3300 -3300 -3300 -3300 -3300 -3300 -3300 -3300 -3300 -3300 -3300 -3300 -3300 -3300 
-3300 -3300 -3300 -3300 -3300 -3300 -3300 -3300 -3300 -3300 -3300 -3300 -3300 -3300 -3300 -3300 -3300 -3300 -3300 -3300 -3300 -3300 -3300 -3300 -3300 -3300 -3300 -3300 -3300 -3300 -3300 -3300 -3300 -3300 -3300 -3300 -3300 -3300 -3300 -3300 -3300 -3300 -3300 -3300 -3300 -3300 -3300 -3300 -3300 -3300 -3300 -3300 -3300 -3300 -3300 -3300 -3300 -3300 -3300 -3300 -3300 -3300 -3300 -3300 -3300 -3300 -3300 -3300 -3300 -3300 -3300 -3300 -3300 -3300 -3300 -3300 -3300 -3300 -3300 -3300 -3300 -3300 -3300 -3300 -3300 -3300 -3300 -3300 -3300 -3300 -3300 -3300 -3300 -3300 -3300 -3300 -3300 -3300 -3300 -3300 
-3300 -3300 -3300 -3300 -3300 -3300 -3300 -3300 -3300 -3300 -3300 -3300 -3300 -3300 -3300 -3300 -3300 -3300 -3300 -3300 -3300 -3300 -3300 -3300 -3300 -3300 -3300 -3300 -3300 -3300 -3300 -3300 -3300 -3300 -3300 -3300 -3300 -3300 -3300 -3300 -3300 -3300 -3300 -3300 -3300 -3300 -3300 -3300 -3300 -3300 -3300 -3300 -3300 -3300 -3300 -3300 -3300 -3300 -3300 -3300 -3300 -3300 -3300 -3300 -3300 -3300 -3300 -3300 -3300 -3300 -3300 -3300 -3300 -3300 -3300 -3300 -3300 -3300 -3300 -3300 -3300 -3300 -3300 -3300 -3300 -3300 -3300 -3300 -3300 -3300 -3300 -3300 -3300 -3300 -3300 -3300 -3300 -3300 -3300 -3300 
-3300 -3300 -3300 -3300 -3300 -3300 -3300 -3300 -3300 -3300 -3300 -3300 -3300 -3300 -3300 -3300 -3300 -3300 -3300 -3300 -3300 -3300 -3300 -3300 -3300 -3300 -3300 -3300 -3300 -3300 -3300 -3300 -3300 -3300 -3300 -3300 -3300 -3300 -3300 -3300 -3300 -3300 -3300 -3300 -3300 -3300 -3300 -3300 -3300 -3300 -3300 -3300 -3300 -3300 -3300 -3300 -3300 -3300 -3300 -3300 -3300 -3300 -3300 -3300 -3300 -3300 -3300 -3300 -3300 -3300 -3300 -3300 -3300 -3300 -3300 -3300 -3300 -3300 -3300 -3300 -3300 -3300 -3300 -3300 -3300 -3300 -3300 -3300 -3300 -3300 -3300 -3300 -3300 -3300 -3300 -3300 -3300 -3300 -3300 -3300 
2460.8 2539.4531 2434.8174 2311.6516 2155.3528 1910.4309 1873.8739 1877.4994 1965.0146 1779.8126 1554.9316 1433.8806 1473.1567 1648.6908 2005.3986 2825.6653 3299.8992 3299.8992 3299.8992 3299.8992 3299.8992 3299.8992 3299.8992 3299.8992 3299.8992 3299.8992 3299.8992 3299.8992 3299.8992 3299.8992 3299.8992 3299.8992 3299.8992 3299.8992 3299.8992 3299.8992 3299.8992 3299.8992 3299.8992 3299.8992 3299.8992 3299.8992 3299.8992 3299.8992 3299.8992 3299.8992 3299.8992 3299.8992 3299.8992 3299.8992 3299.8992 3299.8992 3299.8992 3299.8992 3299.8992 3299.8992 3299.8992 3299.8992 3299.8992 3291.339 3076.3274 1261.6699 -818.15186 -2944.2993 3299.3958 -3285.8 -3271.6003 -3256.9976 -3242.9993 -3229.1016 -3215.3044 -3201.709 -3188.1133 -3174.7192 -3161.4258 -3148.3337 -3135.1409 -3122.351 -3109.4604 -3096.6704 -2541.2659 -1197.9218 -21.954346 1413.5376 2494.9402 2743.4875 3223.059 3299.8992 3299.8992 3299.8992 3299.8992 3299.8992 3299.8992 2617.0989 1117.2546 -1075.8636 -3207.852 -3193.5515 -3179.6538 -3165.9575 
-3300 -3300 -3300 -3300 -3300 -3300 -3300 -3300 -3300 -3300 -3300 -3300 -3300 -3300 -3300 -3300 -3300 -3300 -3300 -3300 -3300 -3300 -3300 -3300 -3300 -3300 -3300 -3300 -3300 -3300 -3300 -3300 -3300 -3300 -3300 -3300 -3300 -3300 -3300 -3300 -3300 -3300 -3300 -3300 -3300 -3300 -3300 -3300 -3300 -3300 -3300 -3300 -3300 -3300 -3300 -3300 -3300 -3300 -3300 -3300 -3300 -3300 -3300 -3300 -3300 -3300 -3300 -3300 -3300 -3300 -3300 -3300 -3300 -3300 -3300 -3300 -3300 -3300 -3300 -3300 -3300 -3300 -3300 -3300 -3300 -3300 -3300 -3300 -3300 -3300 -3300 -3300 -3300 -3300 -3300 -3300 -3300 -3300 -3300 -3300 
-3300 -3300 -3300 -3300 -3300 -3300 -3300 -3300 -3300 -3300 -3300 -3300 -3300 -3300 -3300 -3300 -3300 -3300 -3300 -3300 -3300 -3300 -3300 -3300 -3300 -3300 -3300 -3300 -3300 -3300 -3300 -3300 -3300 -3300 -3300 -3300 -3300 -3300 -3300 -3300 -3300 -3300 -3300 -3300 -3300 -3300 -3300 -3300 -3300 -3300 -3300 -3300 -3300 -3300 -3300 -3300 -3300 -3300 -3300 -3300 -3300 -3300 -3300 -3300 -3300 -3300 -3300 -3300 -3300 -3300 -3300 -3300 -3300 -3300 -3300 -3300 -3300 -3300 -3300 -3300 -3300 -3300 -3300 -3300 -3300 -3300 -3300 -3300 -3300 -3300 -3300 -3300 -3300 -3300 -3300 -3300 -3300 -3300 -3300 -3300 
-3300 -3300 -3300 -3300 -3300 -3300 -3300 -3300 -3300 -3300 -3300 -3300 -3300 -3300 -3300 -3300 -3300 -3300 -3300 -3300 -3300 -3300 -3300 -3300 -3300 -3300 -3300 -3300 -3300 -3300 -3300 -3300 -3300 -3300 -3300 -3300 -3300 -3300 -3300 -3300 -3300 -3300 -3300 -3300 -3300 -3300 -3300 -3300 -3300 -3300 -3300 -3300 -3300 -3300 -3300 -3300 -3300 -3300 -3300 -3300 -3300 -3300 -3300 -3300 -3300 -3300 -3300 -3300 -3300 -3300 -3300 -3300 -3300 -3300 -3300 -3300 -3300 -3300 -3300 -3300 -3300 -3300 -3300 -3300 -3300 -3300 -3300 -3300 -3300 -3300 -3300 -3300 -3300 -3300 -3300 -3300 -3300 -3300 -3300 -3300 

-3300 -3300 -3300 -3300 -3300 -3300 -3300 -3300 -3300 -3300 -3300 -3300 -3300 -3300 -3300 -3300 -3300 -3300 -3300 -3300 -3300 -3300 -3300 -3300 -3300 -3300 -3300 -3300 -3300 -3300 -3300 -3300 -3300 -3300 -3300 -3300 -3300 -3300 -3300 -3300 -3300 -3300 -3300 -3300 -3300 -3300 -3300 -3300 -3300 -3300 -3300 -3300 -3300 -3300 -3300 -3300 -3300 -3300 -3300 -3300 -3300 -3300 -3300 -3300 -3300 -3300 -3300 -3300 -3300 -3300 -3300 -3300 -3300 -3300 -3300 -3300 -3300 -3300 -3300 -3300 -3300 -3300 -3300 -3300 -3300 -3300 -3300 -3300 -3300 -3300 -3300 -3300 -3300 -3300 -3300 -3300 -3300 -3300 -3300 -3300 
-3300 -3300 -3300 -3300 -3300 -3300 -3300 -3300 -3300 -3300 -3300 -3300 -3300 -3300 -3300 -3300 -3300 -3300 -3300 -3300 -3300 -3300 -3300 -3300 -3300 -3300 -3300 -3300 -3300 -3300 -3300 -3300 -3300 -3300 -3300 -3300 -3300 -3300 -3300 -3300 -3300 -3300 -3300 -3300 -3300 -3300 -3300 -3300 -3300 -3300 -3300 -3300 -3300 -3300 -3300 -3300 -3300 -3300 -3300 -3300 -3300 -3300 -3300 -3300 -3300 -3300 -3300 -3300 -3300 -3300 -3300 -3300 -3300 -3300 -3300 -3300 -3300 -3300 -3300 -3300 -3300 -3300 -3300 -3300 -3300 -3300 -3300 -3300 -3300 -3300 -3300 -3300 -3300 -3300 -3300 -3300 -3300 -3300 -3300 -3300 
-3300 -3300 -3300 -3300 -3300 -3300 -3300 -3300 -3300 -3300 -3300 -3300 -3300 -3300 -3300 -3300 -3300 -3300 -3300 -3300 -3300 -3300 -3300 -3300 -3300 -3300 -3300 -3300 -3300 -3300 -3300 -3300 -3300 -3300 -3300 -3300 -3300 -3300 -3300 -3300 -3300 -3300 -3300 -3300 -3300 -3300 -3300 -3300 -3300 -3300 -3300 -3300 -3300 -3300 -3300 -3300 -3300 -3300 -3300 -3300 -3300 -3300 -3300 -3300 -3300 -3300 -3300 -3300 -3300 -3300 -3300 -3300 -3300 -3300 -3300 -3300 -3300 -3300 -3300 -3300 -3300 -3300 -3300 -3300 -3300 -3300 -3300 -3300 -3300 -3300 -3300 -3300 -3300 -3300 -3300 -3300 -3300 -3300 -3300 -3300 
-3300 -3300 -3300 -3300 -3300 -3300 -3300 -3300 -3300 -3300 -3300 -3300 -3300 -3300 -3300 -3300 -3300 -3300 -3300 -3300 -3300 -3300 -3300 -3300 -3300 -3300 -3300 -3300 -3300 -3300 -3300 -3300 -3300 -3300 -3300 -3300 -3300 -3300 -3300 -3300 -3300 -3300 -3300 -3300 -3300 -3300 -3300 -3300 -3300 -3300 -3300 -3300 -3300 -3300 -3300 -3300 -3300 -3300 -3300 -3300 -3300 -3300 -3300 -3300 -3300 -3300 -3300 -3300 -3300 -3300 -3300 -3300 -3300 -3300 -3300 -3300 -3300 -3300 -3300 -3300 -3300 -3300 -3300 -3300 -3300 -3300 -3300 -3300 -3300 -3300 -3300 -3300 -3300 -3300 -3300 -3300 -3300 -3300 -3300 -3300 
-3152.2612 -3139.0686 -3125.6743 -3112.3809 -3099.4902 -3086.7004 -3074.1118 -3061.322 -3048.9348 -3036.7493 -3024.463 -3012.5793 -3000.4944 -2988.7114 -2977.0293 -2965.3472 -2953.8665 -2942.4866 -2931.0059 -2919.7266 -2908.5479 -2897.168 -2886.392 -2875.415 -2864.5386 -2853.662 -2842.7856 -2832.0098 -2821.637 -2810.962 -2800.4883 -2790.0146 -2779.7424 -2769.3694 -2759.0972 -2748.9258 -2738.855 -2728.7842 -2718.814 -2708.844 -2698.8738 -2689.3066 -2679.2358 -2669.6685 -2659.9 -2650.3325 -2640.4631 -2630.9966 -2621.9329 -2612.3657 -2602.8992 -2593.5332 -2584.268 -2575.1038 -2565.9392 -2556.775 -2547.7112 -2538.6475 -2529.5837 -2520.6206 -2511.7583 -2502.9968 -2493.933 -2485.1714 -2476.41 -2467.749 -2459.1887 -2450.2258 -2441.7664 -2433.1055 -2424.646 -2416.0857 -2407.6262 -2399.2676 -2390.7073 -2382.4492 -2374.0906 -2365.933 -2357.776 -2349.7192 -2341.4612 -2333.3037 -2325.4485 -2317.4927 -2309.5366 -2301.6814 -2293.6248 -2285.8704 -2278.2166 -2270.3613 -1976.5961 -1527.5391 -1227.9327 -1124.707 -1071.4325 -1130.8502 -1314.0381 -1489.3707 -1746.2769 -1893.7134 
-3300 -3300 -3300 -3300 -3300 -3300 -3300 -3300 -3300 -3300 -3300 -3300 -3300 -3300 -3300 -3300 -3300 -3300 -3300 -3300 -3300 -3300 -3300 -3300 -3300 -3300 -3300 -3300 -3300 -3300 -3300 -3300 -3300 -3300 -3300 -3300 -3300 -3300 -3300 -3300 -3300 -3300 -3300 -3300 -3300 -3300 -3300 -3300 -3300 -3300 -3300 -3300 -3300 -3300 -3300 -3300 -3300 -3300 -3300 -3300 -3300 -3300 -3300 -3300 -3300 -3300 -3300 -3300 -3300 -3300 -3300 -3300 -3300 -3300 -3300 -3300 -3300 -3300 -3300 -3300 -3300 -3300 -3300 -3300 -3300 -3300 -3300 -3300 -3300 -3300 -3300 -3300 -3300 -3300 -3300 -3300 -3300 -3300 -3300 -3300 
-3300 -3300 -3300 -3300 -3300 -3300 -3300 -3300 -3300 -3300 -3300 -3300 -3300 -3300 -3300 -3300 -3300 -3300 -3300 -3300 -3300 -3300 -3300 -3300 -3300 -3300 -3300 -3300 -3300 -3300 -3300 -3300 -3300 -3300 -3300 -3300 -3300 -3300 -3300 -3300 -3300 -3300 -3300 -3300 -3300 -3300 -3300 -3300 -3300 -3300 -3300 -3300 -3300 -3300 -3300 -3300 -3300 -3300 -3300 -3300 -3300 -3300 -3300 -3300 -3300 -3300 -3300 -3300 -3300 -3300 -3300 -3300 -3300 -3300 -3300 -3300 -3300 -3300 -3300 -3300 -3300 -3300 -3300 -3300 -3300 -3300 -3300 -3300 -3300 -3300 -3300 -3300 -3300 -3300 -3300 -3300 -3300 -3300 -3300 -3300 
-3300 -3300 -3300 -3300 -3300 -3300 -3300 -3300 -3300 -3300 -3300 -3300 -3300 -3300 -3300 -3300 -3300 -3300 -3300 -3300 -3300 -3300 -3300 -3300 -3300 -3300 -3300 -3300 -3300 -3300 -3300 -3300 -3300 -3300 -3300 -3300 -3300 -3300 -3300 -3300 -3300 -3300 -3300 -3300 -3300 -3300 -3300 -3300 -3300 -3300 -3300 -3300 -3300 -3300 -3300 -3300 -3300 -3300 -3300 -3300 -3300 -3300 -3300 -3300 -3300 -3300 -3300 -3300 -3300 -3300 -3300 -3300 -3300 -3300 -3300 -3300 -3300 -3300 -3300 -3300 -3300 -3300 -3300 -3300 -3300 -3300 -3300 -3300 -3300 -3300 -3300 -3300 -3300 -3300 -3300 -3300 -3300 -3300 -3300 -3300 

-3300 -3300 -3300 -3300 -3300 -3300 -3300 -3300 -3300 -3300 -3300 -3300 -3300 -3300 -3300 -3300 -3300 -3300 -3300 -3300 -3300 -3300 -3300 -3300 -3300 -3300 -3300 -3300 -3300 -3300 -3300 -3300 -3300 -3300 -3300 -3300 -3300 -3300 -3300 -3300 -3300 -3300 -3300 -3300 -3300 -3300 -3300 -3300 -3300 -3300 -3300 -3300 -3300 -3300 -3300 -3300 -3300 -3300 -3300 -3300 -3300 -3300 -3300 -3300 -3300 -3300 -3300 -3300 -3300 -3300 -3300 -3300 -3300 -3300 -3300 -3300 -3300 -3300 -3300 -3300 -3300 -3300 -3300 -3300 -3300 -3300 -3300 -3300 -3300 -3300 -3300 -3300 -3300 -3300 -3300 -3300 -3300 -3300 -3300 -3300 
-3300 -3300 -3300 -3300 -3300 -3300 -3300 -3300 -3300 -3300 -3300 -3300 -3300 -3300 -3300 -3300 -3300 -3300 -3300 -3300 -3300 -3300 -3300 -3300 -3300 -3300 -3300 -3300 -3300 -3300 -3300 -3300 -3300 -3300 -3300 -3300 -3300 -3300 -3300 -3300 -3300 -3300 -3300 -3300 -3300 -3300 -3300 -3300 -3300 -3300 -3300 -3300 -3300 -3300 -3300 -3300 -3300 -3300 -3300 -3300 -3300 -3300 -3300 -3300 -3300 -3300 -3300 -3300 -3300 -3300 -3300 -3300 -3300 -3300 -3300 -3300 -3300 -3300 -3300 -3300 -3300 -3300 -3300 -3300 -3300 -3300 -3300 -3300 -3300 -3300 -3300 -3300 -3300 -3300 -3300 -3300 -3300 -3300 -3300 -3300 
-3300 -3300 -3300 -3300 -3300 -3300 -3300 -3300 -3300 -3300 -3300 -3300 -3300 -3300 -3300 -3300 -3300 -3300 -3300 -3300 -3300 -3300 -3300 -3300 -3300 -3300 -3300 -3300 -3300 -3300 -3300 -3300 -3300 -3300 -3300 -3300 -3300 -3300 -3300 -3300 -3300 -3300 -3300 -3300 -3300 -3300 -3300 -3300 -3300 -3300 -3300 -3300 -3300 -3300 -3300 -3300 -3300 -3300 -3300 -3300 -3300 -3300 -3300 -3300 -3300 -3300 -3300 -3300 -3300 -3300 -3300 -3300 -3300 -3300 -3300 -3300 -3300 -3300 -3300 -3300 -3300 -3300 -3300 -3300 -3300 -3300 -3300 -3300 -3300 -3300 -3300 -3300 -3300 -3300 -3300 -3300 -3300 -3300 -3300 -3300 
-3300 -3300 -3300 -3300 -3300 -3300 -3300 -3300 -3300 -3300 -3300 -3300 -3300 -3300 -3300 -3300 -3300 -3300 -3300 -3300 -3300 -3300 -3300 -3300 -3300 -3300 -3300 -3300 -3300 -3300 -3300 -3300 -3300 -3300 -3300 -3300 -3300 -3300 -3300 -3300 -3300 -3300 -3300 -3300 -3300 -3300 -3300 -3300 -3300 -3300 -3300 -3300 -3300 -3300 -3300 -3300 -3300 -3300 -3300 -3300 -3300 -3300 -3300 -3300 -3300 -3300 -3300 -3300 -3300 -3300 -3300 -3300 -3300 -3300 -3300 -3300 -3300 -3300 -3300 -3300 -3300 -3300 -3300 -3300 -3300 -3300 -3300 -3300 -3300 -3300 -3300 -3300 -3300 -3300 -3300 -3300 -3300 -3300 -3300 -3300 
-1869.2413 -1744.9677 -1935.91 -2132.3914 -2188.8884 -2181.3354 -2174.185 -2166.4307 -2159.2803 -2152.0293 -2144.6777 -2137.7288 -2130.4778 -2123.3276 -2116.1772 -2109.2285 -2102.179 -2095.23 -2088.1804 -2079.6204 -1933.8959 -1809.3201 -1443.8507 -1049.3774 -514.2151 296.6858 624.49036 735.7727 985.42786 1440.0238 1998.0469 2450.6287 2693.1335 2736.438 2672.3877 2367.1416 2043.869 1633.3832 1184.2255 971.42944 833.15735 789.8529 613.11035 381.98547 -185.90698 -966.69617 -1201.4465 -1356.6376 -1304.8737 -1719.8914 -2142.3613 -2133.499 -2124.7375 -2116.278 -2107.8186 -2099.3591 -2086.972 -1752.7222 -1215.0421 -1202.3529 -1890.39 -2060.083 -2052.4292 -2044.8761 -2037.5244 -2030.3741 -2023.6267 -2016.3757 -2009.6283 -2002.7802 -1996.1334 -1989.5874 -1982.9407 -1976.4954 -1969.9493 -1963.504 -1781.6254 -509.1797 813.3179 2395.4407 3299.8992 3299.8992 3299.8992 3299.8992 3299.8992 3299.8992 3299.8992 3299.8992 3299.8992 3299.8992 3299.8992 3299.8992 3299.8992 3299.8992 3299.8992 3299.8992 3299.8992 3299.8992 3058.4014 1670.343 
-3300 -3300 -3300 -3300 -3300 -3300 -3300 -3300 -3300 -3300 -3300 -3300 -3300 -3300 -3300 -3300 -3300 -3300 -3300 -3300 -3300 -3300 -3300 -3300 -3300 -3300 -3300 -3300 -3300 -3300 -3300 -3300 -3300 -3300 -3300 -3300 -3300 -3300 -3300 -3300 -3300 -3300 -3300 -3300 -3300 -3300 -3300 -3300 -3300 -3300 -3300 -3300 -3300 -3300 -3300 -3300 -3300 -3300 -3300 -3300 -3300 -3300 -3300 -3300 -3300 -3300 -3300 -3300 -3300 -3300 -3300 -3300 -3300 -3300 -3300 -3300 -3300 -3300 -3300 -3300 -3300 -3300 -3300 -3300 -3300 -3300 -3300 -3300 -3300 -3300 -3300 -3300 -3300 -3300 -3300 -3300 -3300 -3300 -3300 -3300 
-3300 -3300 -3300 -3300 -3300 -3300 -3300 -3300 -3300 -3300 -3300 -3300 -3300 -3300 -3300 -3300 -3300 -3300 -3300 -3300 -3300 -3300 -3300 -3300 -3300 -3300 -3300 -3300 -3300 -3300 -3300 -3300 -3300 -3300 -3300 -3300 -3300 -3300 -3300 -3300 -3300 -3300 -3300 -3300 -3300 -3300 -3300 -3300 -3300 -3300 -3300 -3300 -3300 -3300 -3300 -3300 -3300 -3300 -3300 -3300 -3300 -3300 -3300 -3300 -3300 -3300 -3300 -3300 -3300 -3300 -3300 -3300 -3300 -3300 -3300 -3300 -3300 -3300 -3300 -3300 -3300 -3300 -3300 -3300 -3300 -3300 -3300 -3300 -3300 -3300 -3300 -3300 -3300 -3300 -3300 -3300 -3300 -3300 -3300 -3300 
-3300 -3300 -3300 -3300 -3300 -3300 -3300 -3300 -3300 -3300 -3300 -3300 -3300 -3300 -3300 -3300 -3300 -3300 -3300 -3300 -3300 -3300 -3300 -3300 -3300 -3300 -3300 -3300 -3300 -3300 -3300 -3300 -3300 -3300 -3300 -3300 -3300 -3300 -3300 -3300 -3300 -3300 -3300 -3300 -3300 -3300 -3300 -3300 -3300 -3300 -3300 -3300 -3300 -3300 -3300 -3300 -3300 -3300 -3300 -3300 -3300 -3300 -3300 -3300 -3300 -3300 -3300 -3300 -3300 -3300 -3300 -3300 -3300 -3300 -3300 -3300 -3300 -3300 -3300 -3300 -3300 -3300 -3300 -3300 -3300 -3300 -3300 -3300 -3300 -3300 -3300 -3300 -3300 -3300 -3300 -3300 -3300 -3300 -3300 -3300 

-3300 -3300 -3300 -3300 -3300 -3300 -3300 -3300 -3300 -3300 -3300 -3300 -3300 -3300 -3300 -3300 -3300 -3300 -3300 -3300 -3300 -3300 -3300 -3300 -3300 -3300 -3300 -3300 -3300 -3300 -3300 -3300 -3300 -3300 -3300 -3300 -3300 -3300 -3300 -3300 -3300 -3300 -3300 -3300 -3300 -3300 -3300 -3300 -3300 -3300 -3300 -3300 -3300 -3300 -3300 -3300 -3300 -3300 -3300 -3300 -3300 -3300 -3300 -3300 -3300 -3300 -3300 -3300 -3300 -3300 -3300 -3300 -3300 -3300 -3300 -3300 -3300 -3300 -3300 -3300 -3300 -3300 -3300 -3300 -3300 -3300 -3300 -3300 -3300 -3300 -3300 -3300 -3300 -3300 -3300 -3300 -3300 -3300 -3300 -3300 -3300 -3300 -3300 -3300 -3300 -3300 -3300 -3300 -3300 -3300 -3300 -3300 -3300 -3300 -3300 -3300 -3300 -3300 -3300 -3300 
-3300 -3300 -3300 -3300 -3300 -3300 -3300 -3300 -3300 -3300 -3300 -3300 -3300 -3300 -3300 -3300 -3300 -3300 -3300 -3300 -3300 -3300 -3300 -3300 -3300 -3300 -3300 -3300 -3300 -3300 -3300 -3300 -3300 -3300 -3300 -3300 -3300 -3300 -3300 -3300 -3300 -3300 -3300 -3300 -3300 -3300 -3300 -3300 -3300 -3300 -3300 -3300 -3300 -3300 -3300 -3300 -3300 -3300 -3300 -3300 -3300 -3300 -3300 -3300 -3300 -3300 -3300 -3300 -3300 -3300 -3300 -3300 -3300 -3300 -3300 -3300 -3300 -3300 -3300 -3300 -3300 -3300 -3300 -3300 -3300 -3300 -3300 -3300 -3300 -3300 -3300 -3300 -3300 -3300 -3300 -3300 -3300 -3300 -3300 -3300 -3300 -3300 -3300 -3300 -3300 -3300 -3300 -3300 -3300 -3300 -3300 -3300 -3300 -3300 -3300 -3300 -3300 -3300 -3300 -3300 
-3300 -3300 -3300 -3300 -3300 -3300 -3300 -3300 -3300 -3300 -3300 -3300 -3300 -3300 -3300 -3300 -3300 -3300 -3300 -3300 -3300 -3300 -3300 -3300 -3300 -3300 -3300 -3300 -3300 -3300 -3300 -3300 -3300 -3300 -3300 -3300 -3300 -3300 -3300 -3300 -3300 -3300 -3300 -3300 -3300 -3300 -3300 -3300 -3300 -3300 -3300 -3300 -3300 -3300 -3300 -3300 -3300 -3300 -3300 -3300 -3300 -3300 -3300 -3300 -3300 -3300 -3300 -3300 -3300 -3300 -3300 -3300 -3300 -3300 -3300 -3300 -3300 -3300 -3300 -3300 -3300 -3300 -3300 -3300 -3300 -3300 -3300 -3300 -3300 -3300 -3300 -3300 -3300 -3300 -3300 -3300 -3300 -3300 -3300 -3300 -3300 -3300 -3300 -3300 -3300 -3300 -3300 -3300 -3300 -3300 -3300 -3300 -3300 -3300 -3300 -3300 -3300 -3300 -3300 -3300 
-3300 -3300 -3300 -3300 -3300 -3300 -3300 -3300 -3300 -3300 -3300 -3300 -3300 -3300 -3300 -3300 -3300 -3300 -3300 -3300 -3300 -3300 -3300 -3300 -3300 -3300 -3300 -3300 -3300 -3300 -3300 -3300 -3300 -3300 -3300 -3300 -3300 -3300 -3300 -3300 -3300 -3300 -3300 -3300 -3300 -3300 -3300 -3300 -3300 -3300 -3300 -3300 -3300 -3300 -3300 -3300 -3300 -3300 -3300 -3300 -3300 -3300 -3300 -3300 -3300 -3300 -3300 -3300 -3300 -3300 -3300 -3300 -3300 -3300 -3300 -3300 -3300 -3300 -3300 -3300 -3300 -3300 -3300 -3300 -3300 -3300 -3300 -3300 -3300 -3300 -3300 -3300 -3300 -3300 -3300 -3300 -3300 -3300 -3300 -3300 -3300 -3300 -3300 -3300 -3300 -3300 -3300 -3300 -3300 -3300 -3300 -3300 -3300 -3300 -3300 -3300 -3300 -3300 -3300 -3300 
-225.68665 -2524.0447 -2512.564 -2501.6875 -2491.0125 -2480.5388 -2470.468 -2459.8938 -2449.9236 -2439.8528 -2429.9834 -2420.114 -2410.446 -2400.778 -2391.211 -2381.7444 -2372.3784 -1940.4419 -752.2888 790.155 2678.6316 3299.8992 3299.8992 3299.8992 3299.8992 3299.8992 3299.8992 3299.8992 3299.8992 3299.8992 3299.8992 3299.8992 3299.8992 3299.8992 3299.8992 3299.8992 3299.8992 3299.8992 2307.8247 3299.8992 3299.8992 3299.8992 3299.8992 3299.8992 3299.8992 3299.8992 3299.8992 1204.8706 -2763.8306 -2751.3428 -2739.0564 -2727.3743 -2715.6921 -2704.312 -2693.0327 -2681.9548 -2670.9778 -2660.0005 -2649.2249 -2412.2588 -703.0426 2251.6296 3299.8992 3299.8992 3299.8992 3299.8992 3299.8992 3299.8992 3299.8992 3299.8992 3299.8992 3299.8992 3299.8992 3299.8992 3299.8992 2464.325 -273.72437 -2648.7212 -2828.1829 -2815.695 -2803.4087 -2791.8274 3299.8992 3299.8992 3299.8992 3299.8992 3299.8992 3299.8992 3299.8992 3299.8992 3299.8992 3099.7925 469.80286 -2053.2349 -2911.0657 -2898.2756 -2885.6873 -2873.401 -2861.215 -2849.231 -2837.448 -2826.068 -2759.6008 -1443.6493 10.775757 587.6312 1195.404 1817.276 3299.8992 3299.8992 3299.8992 3299.8992 2551.4373 1111.5143 -712.7106 -2885.385 -2873.0986 -2860.8123 -2848.4253 -2836.6423 
-3300 -3300 -3300 -3300 -3300 -3300 -3300 -3300 -3300 -3300 -3300 -3300 -3300 -3300 -3300 -3300 -3300 -3300 -3300 -3300 -3300 -3300 -3300 -3300 -3300 -3300 -3300 -3300 -3300 -3300 -3300 -3300 -3300 -3300 -3300 -3300 -3300 -3300 -3300 -3300 -3300 -3300 -3300 -3300 -3300 -3300 -3300 -3300 -3300 -3300 -3300 -3300 -3300 -3300 -3300 -3300 -3300 -3300 -3300 -3300 -3300 -3300 -3300 -3300 -3300 -3300 -3300 -3300 -3300 -3300 -3300 -3300 -3300 -3300 -3300 -3300 -3300 -3300 -3300 -3300 -3300 -3300 -3300 -3300 -3300 -3300 -3300 -3300 -3300 -3300 -3300 -3300 -3300 -3300 -3300 -3300 -3300 -3300 -3300 -3300 -3300 -3300 -3300 -3300 -3300 -3300 -3300 -3300 -3300 -3300 -3300 -3300 -3300 -3300 -3300 -3300 -3300 -3300 -3300 -3300 
-3300 -3300 -3300 -3300 -3300 -3300 -3300 -3300 -3300 -3300 -3300 -3300 -3300 -3300 -3300 -3300 -3300 -3300 -3300 -3300 -3300 -3300 -3300 -3300 -3300 -3300 -3300 -3300 -3300 -3300 -3300 -3300 -3300 -3300 -3300 -3300 -3300 -3300 -3300 -3300 -3300 -3300 -3300 -3300 -3300 -3300 -3300 -3300 -3300 -3300 -3300 -3300 -3300 -3300 -3300 -3300 -3300 -3300 -3300 -3300 -3300 -3300 -3300 -3300 -3300 -3300 -3300 -3300 -3300 -3300 -3300 -3300 -3300 -3300 -3300 -3300 -3300 -3300 -3300 -3300 -3300 -3300 -3300 -3300 -3300 -3300 -3300 -3300 -3300 -3300 -3300 -3300 -3300 -3300 -3300 -3300 -3300 -3300 -3300 -3300 -3300 -3300 -3300 -3300 -3300 -3300 -3300 -3300 -3300 -3300 -3300 -3300 -3300 -3300 -3300 -3300 -3300 -3300 -3300 -3300 
-3300 -3300 -3300 -3300 -3300 -3300 -3300 -3300 -3300 -3300 -3300 -3300 -3300 -3300 -3300 -3300 -3300 -3300 -3300 -3300 -3300 -3300 -3300 -3300 -3300 -3300 -3300 -3300 -3300 -3300 -3300 -3300 -3300 -3300 -3300 -3300 -3300 -3300 -3300 -3300 -3300 -3300 -3300 -3300 -3300 -3300 -3300 -3300 -3300 -3300 -3300 -3300 -3300 -3300 -3300 -3300 -3300 -3300 -3300 -3300 -3300 -3300 -3300 -3300 -3300 -3300 -3300 -3300 -3300 -3300 -3300 -3300 -3300 -3300 -3300 -3300 -3300 -3300 -3300 -3300 -3300 -3300 -3300 -3300 -3300 -3300 -3300 -3300 -3300 -3300 -3300 -3300 -3300 -3300 -3300 -3300 -3300 -3300 -3300 -3300 -3300 -3300 -3300 -3300 -3300 -3300 -3300 -3300 -3300 -3300 -3300 -3300 -3300 -3300 -3300 -3300 -3300 -3300 -3300 -3300 

-3300 -3300 -3300 -3300 -3300 -3300 -3300 -3300 -3300 -3300 -3300 -3300 -3300 -3300 -3300 -3300 -3300 -3300 -3300 -3300 -3300 -3300 -3300 -3300 -3300 -3300 -3300 -3300 -3300 -3300 -3300 -3300 -3300 -3300 -3300 -3300 -3300 -3300 -3300 -3300 -3300 -3300 -3300 -3300 -3300 -3300 -3300 -3300 -3300 -3300 -3300 -3300 -3300 -3300 -3300 -3300 -3300 -3300 -3300 -3300 -3300 -3300 -3300 -3300 -3300 -3300 -3300 -3300 -3300 -3300 -3300 -3300 -3300 -3300 -3300 -3300 -3300 -3300 -3300 -3300 -3300 -3300 -3300 -3300 -3300 -3300 -3300 -3300 -3300 -3300 -3300 -3300 -3300 -3300 -3300 -3300 -3300 -3300 -3300 -3300 
-3300 -3300 -3300 -3300 -3300 -3300 -3300 -3300 -3300 -3300 -3300 -3300 -3300 -3300 -3300 -3300 -3300 -3300 -3300 -3300 -3300 -3300 -3300 -3300 -3300 -3300 -3300 -3300 -3300 -3300 -3300 -3300 -3300 -3300 -3300 -3300 -3300 -3300 -3300 -3300 -3300 -3300 -3300 -3300 -3300 -3300 -3300 -3300 -3300 -3300 -3300 -3300 -3300 -3300 -3300 -3300 -3300 -3300 -3300 -3300 -3300 -3300 -3300 -3300 -3300 -3300 -3300 -3300 -3300 -3300 -3300 -3300 -3300 -3300 -3300 -3300 -3300 -3300 -3300 -3300 -3300 -3300 -3300 -3300 -3300 -3300 -3300 -3300 -3300 -3300 -3300 -3300 -3300 -3300 -3300 -3300 -3300 -3300 -3300 -3300 
-3300 -3300 -3300 -3300 -3300 -3300 -3300 -3300 -3300 -3300 -3300 -3300 -3300 -3300 -3300 -3300 -3300 -3300 -3300 -3300 -3300 -3300 -3300 -3300 -3300 -3300 -3300 -3300 -3300 -3300 -3300 -3300 -3300 -3300 -3300 -3300 -3300 -3300 -3300 -3300 -3300 -3300 -3300 -3300 -3300 -3300 -3300 -3300 -3300 -3300 -3300 -3300 -3300 -3300 -3300 -3300 -3300 -3300 -3300 -3300 -3300 -3300 -3300 -3300 -3300 -3300 -3300 -3300 -3300 -3300 -3300 -3300 -3300 -3300 -3300 -3300 -3300 -3300 -3300 -3300 -3300 -3300 -3300 -3300 -3300 -3300 -3300 -3300 -3300 -3300 -3300 -3300 -3300 -3300 -3300 -3300 -3300 -3300 -3300 -3300 
-3300 -3300 -3300 -3300 -3300 -3300 -3300 -3300 -3300 -3300 -3300 -3300 -3300 -3300 -3300 -3300 -3300 -3300 -3300 -3300 -3300 -3300 -3300 -3300 -3300 -3300 -3300 -3300 -3300 -3300 -3300 -3300 -3300 -3300 -3300 -3300 -3300 -3300 -3300 -3300 -3300 -3300 -3300 -3300 -3300 -3300 -3300 -3300 -3300 -3300 -3300 -3300 -3300 -3300 -3300 -3300 -3300 -3300 -3300 -3300 -3300 -3300 -3300 -3300 -3300 -3300 -3300 -3300 -3300 -3300 -3300 -3300 -3300 -3300 -3300 -3300 -3300 -3300 -3300 -3300 -3300 -3300 -3300 -3300 -3300 -3300 -3300 -3300 -3300 -3300 -3300 -3300 -3300 -3300 -3300 -3300 -3300 -3300 -3300 -3300 
-2824.6582 -2812.7747 -2801.4954 -2790.0146 -2778.534 -2767.5566 -2756.2773 -2745.3003 -2734.6252 -2723.7488 -2713.1743 -2702.4993 -2691.925 -2681.552 -2671.1792 -2660.8062 -2650.6348 -2640.3625 -2630.2917 -2620.3215 -2610.2507 -2586.9873 -864.57825 2008.7219 3299.8992 3299.8992 3299.8992 3299.8992 3299.8992 3299.8992 3299.8992 3299.8992 3299.8992 3299.8992 3299.8992 3120.9412 779.9835 -1615.5579 -2780.4473 -2768.4631 -2756.5796 -2744.7966 -2733.7188 -2722.3389 -2711.1602 -2700.0823 -2689.1052 -2678.2288 -2667.5537 -2656.8787 -2646.3042 -2635.73 -2625.357 -2614.9841 -2604.712 -2594.641 -2584.5703 -2220.9136 -749.97253 1342.6392 3299.8992 3299.8992 3299.8992 3299.8992 3299.8992 3299.8992 3299.8992 3299.8992 3299.8992 3299.8992 3299.8992 3299.8992 3299.8992 3299.8992 3299.8992 3299.8992 3299.8992 2003.7872 308.67004 -1883.4412 -2835.2324 -2822.644 -2810.861 -2798.9775 -2787.1948 -2775.6133 -2763.9312 -2752.7527 -2741.6748 -2730.496 -2719.4182 -2708.4412 -2697.5647 -2686.8896 -2676.2146 -2665.5396 -2655.066 -1530.8624 96.47827 2301.7822 
-3300 -3300 -3300 -3300 -3300 -3300 -3300 -3300 -3300 -3300 -3300 -3300 -3300 -3300 -3300 -3300 -3300 -3300 -3300 -3300 -3300 -3300 -3300 -3300 -3300 -3300 -3300 -3300 -3300 -3300 -3300 -3300 -3300 -3300 -3300 -3300 -3300 -3300 -3300 -3300 -3300 -3300 -3300 -3300 -3300 -3300 -3300 -3300 -3300 -3300 -3300 -3300 -3300 -3300 -3300 -3300 -3300 -3300 -3300 -3300 -3300 -3300 -3300 -3300 -3300 -3300 -3300 -3300 -3300 -3300 -3300 -3300 -3300 -3300 -3300 -3300 -3300 -3300 -3300 -3300 -3300 -3300 -3300 -3300 -3300 -3300 -3300 -3300 -3300 -3300 -3300 -3300 -3300 -3300 -3300 -3300 -3300 -3300 -3300 -3300 
-3300 -3300 -3300 -3300 -3300 -3300 -3300 -3300 -3300 -3300 -3300 -3300 -3300 -3300 -3300 -3300 -3300 -3300 -3300 -3300 -3300 -3300 -3300 -3300 -3300 -3300 -3300 -3300 -3300 -3300 -3300 -3300 -3300 -3300 -3300 -3300 -3300 -3300 -3300 -3300 -3300 -3300 -3300 -3300 -3300 -3300 -3300 -3300 -3300 -3300 -3300 -3300 -3300 -3300 -3300 -3300 -3300 -3300 -3300 -3300 -3300 -3300 -3300 -3300 -3300 -3300 -3300 -3300 -3300 -3300 -3300 -3300 -3300 -3300 -3300 -3300 -3300 -3300 -3300 -3300 -3300 -3300 -3300 -3300 -3300 -3300 -3300 -3300 -3300 -3300 -3300 -3300 -3300 -3300 -3300 -3300 -3300 -3300 -3300 -3300 
-3300 -3300 -3300 -3300 -3300 -3300 -3300 -3300 -3300 -3300 -3300 -3300 -3300 -3300 -3300 -3300 -3300 -3300 -3300 -3300 -3300 -3300 -3300 -3300 -3300 -3300 -3300 -3300 -3300 -3300 -3300 -3300 -3300 -3300 -3300 -3300 -3300 -3300 -3300 -3300 -3300 -3300 -3300 -3300 -3300 -3300 -3300 -3300 -3300 -3300 -3300 -3300 -3300 -3300 -3300 -3300 -3300 -3300 -3300 -3300 -3300 -3300 -3300 -3300 -3300 -3300 -3300 -3300 -3300 -3300 -3300 -3300 -3300 -3300 -3300 -3300 -3300 -3300 -3300 -3300 -3300 -3300 -3300 -3300 -3300 -3300 -3300 -3300 -3300 -3300 -3300 -3300 -3300 -3300 -3300 -3300 -3300 -3300 -3300 -3300 

-3300 -3300 -3300 -3300 -3300 -3300 -3300 -3300 -3300 -3300 -3300 -3300 -3300 -3300 -3300 -3300 -3300 -3300 -3300 -3300 -3300 -3300 -3300 -3300 -3300 -3300 -3300 -3300 -3300 -3300 -3300 -3300 -3300 -3300 -3300 -3300 -3300 -3300 -3300 -3300 -3300 -3300 -3300 -3300 -3300 -3300 -3300 -3300 -3300 -3300 -3300 -3300 -3300 -3300 -3300 -3300 -3300 -3300 -3300 -3300 -3300 -3300 -3300 -3300 -3300 -3300 -3300 -3300 -3300 -3300 -3300 -3300 -3300 -3300 -3300 -3300 -3300 -3300 -3300 -3300 -3300 -3300 -3300 -3300 -3300 -3300 -3300 -3300 -3300 -3300 -3300 -3300 -3300 -3300 -3300 -3300 -3300 -3300 -3300 -3300 
-3300 -3300 -3300 -3300 -3300 -3300 -3300 -3300 -3300 -3300 -3300 -3300 -3300 -3300 -3300 -3300 -3300 -3300 -3300 -3300 -3300 -3300 -3300 -3300 -3300 -3300 -3300 -3300 -3300 -3300 -3300 -3300 -3300 -3300 -3300 -3300 -3300 -3300 -3300 -3300 -3300 -3300 -3300 -3300 -3300 -3300 -3300 -3300 -3300 -3300 -3300 -3300 -3300 -3300 -3300 -3300 -3300 -3300 -3300 -3300 -3300 -3300 -3300 -3300 -3300 -3300 -3300 -3300 -3300 -3300 -3300 -3300 -3300 -3300 -3300 -3300 -3300 -3300 -3300 -3300 -3300 -3300 -3300 -3300 -3300 -3300 -3300 -3300 -3300 -3300 -3300 -3300 -3300 -3300 -3300 -3300 -3300 -3300 -3300 -3300 
