-3300 -3300 -3300 -3300 -3300 -3300 -3300 -3300 -3300 -3300 -3300 -3300 -3300 -3300 -3300 -3300 -3300 -3300 -3300 -3300 -3300 -3300 -3300 -3300 -3300 -3300 -3300 -3300 
-3300 -3300 -3300 -3300 -3300 -3300 -3300 -3300 -3300 -3300 -3300 -3300 -3300 -3300 -3300 -3300 -3300 -3300 -3300 -3300 -3300 -3300 -3300 -3300 -3300 -3300 -3300 -3300 
-3300 -3300 -3300 -3300 -3300 -3300 -3300 -3300 -3300 -3300 -3300 -3300 -3300 -3300 -3300 -3300 -3300 -3300 -3300 -3300 -3300 -3300 -3300 -3300 -3300 -3300 -3300 -3300 
-3300 -3300 -3300 -3300 -3300 -3300 -3300 -3300 -3300 -3300 -3300 -3300 -3300 -3300 -3300 -3300 -3300 -3300 -3300 -3300 -3300 -3300 -3300 -3300 -3300 -3300 -3300 -3300 
3264.8528 3278.0457 3291.339 3299.8992 -3282.5774 -3269.6868 -3256.5947 -2319.6074 -957.9346 218.53638 1145.1508 1931.1768 2975.3174 3299.8992 3299.8992 3294.6624 3281.2683 3267.6726 3253.8757 3240.3809 3226.886 3213.4917 3200.0977 3186.502 3172.9065 3155.5847 2154.849 438.07983 
-3300 -3300 -3300 -3300 -3300 -3300 -3300 -3300 -3300 -3300 -3300 -3300 -3300 -3300 -3300 -3300 -3300 -3300 -3300 -3300 -3300 -3300 -3300 -3300 -3300 -3300 -3300 -3300 
-3300 -3300 -3300 -3300 -3300 -3300 -3300 -3300 -3300 -3300 -3300 -3300 -3300 -3300 -3300 -3300 -3300 -3300 -3300 -3300 -3300 -3300 -3300 -3300 -3300 -3300 -3300 -3300 
-3300 -3300 -3300 -3300 -3300 -3300 -3300 -3300 -3300 -3300 -3300 -3300 -3300 -3300 -3300 -3300 -3300 -3300 -3300 -3300 -3300 -3300 -3300 -3300 -3300 -3300 -3300 -3300 

-3300 -3300 -3300 -3300 -3300 -3300 -3300 -3300 -3300 -3300 -3300 -3300 -3300 -3300 -3300 -3300 -3300 -3300 -3300 -3300 -3300 -3300 -3300 -3300 -3300 -3300 -3300 -3300 -3300 -3300 -3300 -3300 -3300 -3300 -3300 -3300 -3300 -3300 -3300 -3300 -3300 -3300 -3300 -3300 -3300 -3300 -3300 -3300 -3300 -3300 -3300 -3300 -3300 -3300 -3300 -3300 -3300 -3300 -3300 -3300 -3300 -3300 -3300 -3300 -3300 -3300 -3300 -3300 -3300 -3300 -3300 -3300 -3300 -3300 -3300 -3300 -3300 -3300 -3300 -3300 -3300 -3300 -3300 -3300 -3300 -3300 -3300 -3300 -3300 -3300 -3300 -3300 -3300 -3300 -3300 -3300 -3300 -3300 -3300 -3300 -3300 -3300 -3300 -3300 -3300 -3300 -3300 -3300 -3300 -3300 -3300 -3300 -3300 -3300 -3300 -3300 -3300 -3300 -3300 -3300 
-3300 -3300 -3300 -3300 -3300 -3300 -3300 -3300 -3300 -3300 -3300 -3300 -3300 -3300 -3300 -3300 -3300 -3300 -3300 -3300 -3300 -3300 -3300 -3300 -3300 -3300 -3300 -3300 -3300 -3300 -3300 -3300 -3300 -3300 -3300 -3300 -3300 -3300 -3300 -3300 -3300 -3300 -3300 -3300 -3300 -3300 -3300 -3300 -3300 -3300 -3300 -3300 -3300 -3300 -3300 -3300 -3300 -3300 -3300 -3300 -3300 -3300 -3300 -3300 -3300 -3300 -3300 -3300 -3300 -3300 -3300 -3300 -3300 -3300 -3300 -3300 -3300 -3300 -3300 -3300 -3300 -3300 -3300 -3300 -3300 -3300 -3300 -3300 -3300 -3300 -3300 -3300 -3300 -3300 -3300 -3300 -3300 -3300 -3300 -3300 -3300 -3300 -3300 -3300 -3300 -3300 -3300 -3300 -3300 -3300 -3300 -3300 -3300 -3300 -3300 -3300 -3300 -3300 -3300 -3300 
-3300 -3300 -3300 -3300 -3300 -3300 -3300 -3300 -3300 -3300 -3300 -3300 -3300 -3300 -3300 -3300 -3300 -3300 -3300 -3300 -3300 -3300 -3300 -3300 -3300 -3300 -3300 -3300 -3300 -3300 -3300 -3300 -3300 -3300 -3300 -3300 -3300 -3300 -3300 -3300 -3300 -3300 -3300 -3300 -3300 -3300 -3300 -3300 -3300 -3300 -3300 -3300 -3300 -3300 -3300 -3300 -3300 -3300 -3300 -3300 -3300 -3300 -3300 -3300 -3300 -3300 -3300 -3300 -3300 -3300 -3300 -3300 -3300 -3300 -3300 -3300 -3300 -3300 -3300 -3300 -3300 -3300 -3300 -3300 -3300 -3300 -3300 -3300 -3300 -3300 -3300 -3300 -3300 -3300 -3300 -3300 -3300 -3300 -3300 -3300 -3300 -3300 -3300 -3300 -3300 -3300 -3300 -3300 -3300 -3300 -3300 -3300 -3300 -3300 -3300 -3300 -3300 -3300 -3300 -3300 
-3300 -3300 -3300 -3300 -3300 -3300 -3300 -3300 -3300 -3300 -3300 -3300 -3300 -3300 -3300 -3300 -3300 -3300 -3300 -3300 -3300 -3300 -3300 -3300 -3300 -3300 -3300 -3300 -3300 -3300 -3300 -3300 -3300 -3300 -3300 -3300 -3300 -3300 -3300 -3300 -3300 -3300 -3300 -3300 -3300 -3300 -3300 -3300 -3300 -3300 -3300 -3300 -3300 -3300 -3300 -3300 -3300 -3300 -3300 -3300 -3300 -3300 -3300 -3300 -3300 -3300 -3300 -3300 -3300 -3300 -3300 -3300 -3300 -3300 -3300 -3300 -3300 -3300 -3300 -3300 -3300 -3300 -3300 -3300 -3300 -3300 -3300 -3300 -3300 -3300 -3300 -3300 -3300 -3300 -3300 -3300 -3300 -3300 -3300 -3300 -3300 -3300 -3300 -3300 -3300 -3300 -3300 -3300 -3300 -3300 -3300 -3300 -3300 -3300 -3300 -3300 -3300 -3300 -3300 -3300 
-1167.81 -2547.409 3167.9717 3182.776 3197.5798 3212.1826 3226.4832 3240.985 3255.1848 3269.3848 3283.081 3296.9788 -3289.1235 -3275.4272 -3261.9324 -3248.7395 -3200.299 -3076.3274 -2933.322 -2828.1829 -2156.964 -1082.4097 -221.96045 416.93115 1542.1417 3299.8992 3299.8992 3299.8992 3299.8992 3299.8992 3299.8992 3299.8992 3299.8992 3291.2383 3277.24 3226.0803 2605.8196 916.34216 -1372.5494 -3152.9663 -3228.7993 -3281.1675 3299.295 -3286.4043 -3272.3052 -3258.206 -3244.9126 -3230.9143 -3217.4194 -3203.7231 -3190.4297 -3177.3376 -3164.447 -3151.8584 -3139.3706 -3126.7822 -3114.4958 -3102.6123 -3090.326 -3078.3416 -3066.3574 -3001.0986 -2333.1023 -1262.1735 133.03528 2384.1614 3299.8992 3299.8992 3299.8992 3299.8992 3299.8992 3299.8992 3299.8992 3299.8992 3299.8992 3299.8992 3299.8992 3299.8992 2412.561 796.90247 -687.9364 -1974.5819 -3026.6785 -3205.7373 -3191.7388 -3177.841 -3164.749 -3151.1536 -3137.86 -3124.768 -3111.7766 -3098.886 -3086.0962 -3073.5076 -3061.0198 -3048.532 -3036.2456 -3024.362 -2404.9072 -656.91833 1169.9249 2702.2979 3299.8992 3299.8992 3299.8992 3299.8992 3299.8992 3299.8992 3299.8992 3299.8992 3299.8992 3299.8992 3299.8992 3299.8992 3299.8992 3299.8992 3299.8992 3299.8992 3299.8992 3299.8992 
-3300 -3300 -3300 -3300 -3300 -3300 -3300 -3300 -3300 -3300 -3300 -3300 -3300 -3300 -3300 -3300 -3300 -3300 -3300 -3300 -3300 -3300 -3300 -3300 -3300 -3300 -3300 -3300 -3300 -3300 -3300 -3300 -3300 -3300 -3300 -3300 -3300 -3300 -3300 -3300 -3300 -3300 -3300 -3300 -3300 -3300 -3300 -3300 -3300 -3300 -3300 -3300 -3300 -3300 -3300 -3300 -3300 -3300 -3300 -3300 -3300 -3300 -3300 -3300 -3300 -3300 -3300 -3300 -3300 -3300 -3300 -3300 -3300 -3300 -3300 -3300 -3300 -3300 -3300 -3300 -3300 -3300 -3300 -3300 -3300 -3300 -3300 -3300 -3300 -3300 -3300 -3300 -3300 -3300 -3300 -3300 -3300 -3300 -3300 -3300 -3300 -3300 -3300 -3300 -3300 -3300 -3300 -3300 -3300 -3300 -3300 -3300 -3300 -3300 -3300 -3300 -3300 -3300 -3300 -3300 
-3300 -3300 -3300 -3300 -3300 -3300 -3300 -3300 -3300 -3300 -3300 -3300 -3300 -3300 -3300 -3300 -3300 -3300 -3300 -3300 -3300 -3300 -3300 -3300 -3300 -3300 -3300 -3300 -3300 -3300 -3300 -3300 -3300 -3300 -3300 -3300 -3300 -3300 -3300 -3300 -3300 -3300 -3300 -3300 -3300 -3300 -3300 -3300 -3300 -3300 -3300 -3300 -3300 -3300 -3300 -3300 -3300 -3300 -3300 -3300 -3300 -3300 -3300 -3300 -3300 -3300 -3300 -3300 -3300 -3300 -3300 -3300 -3300 -3300 -3300 -3300 -3300 -3300 -3300 -3300 -3300 -3300 -3300 -3300 -3300 -3300 -3300 -3300 -3300 -3300 -3300 -3300 -3300 -3300 -3300 -3300 -3300 -3300 -3300 -3300 -3300 -3300 -3300 -3300 -3300 -3300 -3300 -3300 -3300 -3300 -3300 -3300 -3300 -3300 -3300 -3300 -3300 -3300 -3300 -3300 
-3300 -3300 -3300 -3300 -3300 -3300 -3300 -3300 -3300 -3300 -3300 -3300 -3300 -3300 -3300 -3300 -3300 -3300 -3300 -3300 -3300 -3300 -3300 -3300 -3300 -3300 -3300 -3300 -3300 -3300 -3300 -3300 -3300 -3300 -3300 -3300 -3300 -3300 -3300 -3300 -3300 -3300 -3300 -3300 -3300 -3300 -3300 -3300 -3300 -3300 -3300 -3300 -3300 -3300 -3300 -3300 -3300 -3300 -3300 -3300 -3300 -3300 -3300 -3300 -3300 -3300 -3300 -3300 -3300 -3300 -3300 -3300 -3300 -3300 -3300 -3300 -3300 -3300 -3300 -3300 -3300 -3300 -3300 -3300 -3300 -3300 -3300 -3300 -3300 -3300 -3300 -3300 -3300 -3300 -3300 -3300 -3300 -3300 -3300 -3300 -3300 -3300 -3300 -3300 -3300 -3300 -3300 -3300 -3300 -3300 -3300 -3300 -3300 -3300 -3300 -3300 -3300 -3300 -3300 -3300 

-3300 -3300 -3300 -3300 -3300 -3300 -3300 -3300 -3300 -3300 -3300 -3300 -3300 -3300 -3300 -3300 -3300 -3300 -3300 -3300 -3300 -3300 -3300 -3300 -3300 -3300 -3300 -3300 -3300 -3300 -3300 -3300 -3300 -3300 -3300 -3300 -3300 -3300 -3300 -3300 -3300 -3300 -3300 -3300 -3300 -3300 -3300 -3300 -3300 -3300 -3300 -3300 -3300 -3300 -3300 -3300 -3300 -3300 -3300 -3300 -3300 -3300 -3300 -3300 -3300 -3300 -3300 -3300 -3300 -3300 -3300 -3300 -3300 -3300 -3300 -3300 -3300 -3300 -3300 -3300 -3300 -3300 -3300 -3300 -3300 -3300 -3300 -3300 -3300 -3300 -3300 -3300 -3300 -3300 -3300 -3300 -3300 -3300 -3300 -3300 
-3300 -3300 -3300 -3300 -3300 -3300 -3300 -3300 -3300 -3300 -3300 -3300 -3300 -3300 -3300 -3300 -3300 -3300 -3300 -3300 -3300 -3300 -3300 -3300 -3300 -3300 -3300 -3300 -3300 -3300 -3300 -3300 -3300 -3300 -3300 -3300 -3300 -3300 -3300 -3300 -3300 -3300 -3300 -3300 -3300 -3300 -3300 -3300 -3300 -3300 -3300 -3300 -3300 -3300 -3300 -3300 -3300 -3300 -3300 -3300 -3300 -3300 -3300 -3300 -3300 -3300 -3300 -3300 -3300 -3300 -3300 -3300 -3300 -3300 -3300 -3300 -3300 -3300 -3300 -3300 -3300 -3300 -3300 -3300 -3300 -3300 -3300 -3300 -3300 -3300 -3300 -3300 -3300 -3300 -3300 -3300 -3300 -3300 -3300 -3300 
-3300 -3300 -3300 -3300 -3300 -3300 -3300 -3300 -3300 -3300 -3300 -3300 -3300 -3300 -3300 -3300 -3300 -3300 -3300 -3300 -3300 -3300 -3300 -3300 -3300 -3300 -3300 -3300 -3300 -3300 -3300 -3300 -3300 -3300 -3300 -3300 -3300 -3300 -3300 -3300 -3300 -3300 -3300 -3300 -3300 -3300 -3300 -3300 -3300 -3300 -3300 -3300 -3300 -3300 -3300 -3300 -3300 -3300 -3300 -3300 -3300 -3300 -3300 -3300 -3300 -3300 -3300 -3300 -3300 -3300 -3300 -3300 -3300 -3300 -3300 -3300 -3300 -3300 -3300 -3300 -3300 -3300 -3300 -3300 -3300 -3300 -3300 -3300 -3300 -3300 -3300 -3300 -3300 -3300 -3300 -3300 -3300 -3300 -3300 -3300 
-3300 -3300 -3300 -3300 -3300 -3300 -3300 -3300 -3300 -3300 -3300 -3300 -3300 -3300 -3300 -3300 -3300 -3300 -3300 -3300 -3300 -3300 -3300 -3300 -3300 -3300 -3300 -3300 -3300 -3300 -3300 -3300 -3300 -3300 -3300 -3300 -3300 -3300 -3300 -3300 -3300 -3300 -3300 -3300 -3300 -3300 -3300 -3300 -3300 -3300 -3300 -3300 -3300 -3300 -3300 -3300 -3300 -3300 -3300 -3300 -3300 -3300 -3300 -3300 -3300 -3300 -3300 -3300 -3300 -3300 -3300 -3300 -3300 -3300 -3300 -3300 -3300 -3300 -3300 -3300 -3300 -3300 -3300 -3300 -3300 -3300 -3300 -3300 -3300 -3300 -3300 -3300 -3300 -3300 -3300 -3300 -3300 -3300 -3300 -3300 
3299.8992 3017.9167 1632.5775 -232.6355 -2390.6067 3299.8992 -3282.4768 -3267.874 -3253.8757 -3239.8772 -3225.9795 -3212.2832 -3198.7883 -3185.3943 -3172 -3158.7065 -3145.7153 -3132.7239 -3119.8333 -3107.0435 -3094.3542 -3081.5642 -3069.2778 -2894.5496 -1869.342 5.2368164 1779.4098 3299.8992 3299.8992 3299.8992 3299.8992 3299.8992 3299.8992 3299.8992 3299.8992 3299.8992 2723.4465 1051.2909 -952.49634 -2703.305 -3179.251 -3165.5547 -3151.5564 -3138.0615 -3124.768 -3111.5752 -3098.2817 -3085.391 -3072.8027 -3060.0127 -3047.4243 -3035.037 -3022.7507 -3010.7666 -2998.883 -2987.201 -2975.6194 -2964.2395 -2952.9602 -2208.9294 -680.78613 736.47766 1873.5718 3009.0544 3299.8992 3299.8992 3299.8992 3299.8992 3299.8992 3299.8992 3299.8992 3299.8992 3299.8992 3299.8992 3299.8992 3299.8992 3299.8992 3299.8992 3299.8992 2539.856 1286.7462 121.051025 -697.40295 -1574.7711 -2501.0833 -3170.1873 -3156.2896 -3142.694 -3129.4006 -3116.2078 -3103.0151 -3090.0237 -3077.133 -3064.4438 -3051.7546 -3039.2668 -3026.779 -2488.2935 -844.8395 712.60986 
-3300 -3300 -3300 -3300 -3300 -3300 -3300 -3300 -3300 -3300 -3300 -3300 -3300 -3300 -3300 -3300 -3300 -3300 -3300 -3300 -3300 -3300 -3300 -3300 -3300 -3300 -3300 -3300 -3300 -3300 -3300 -3300 -3300 -3300 -3300 -3300 -3300 -3300 -3300 -3300 -3300 -3300 -3300 -3300 -3300 -3300 -3300 -3300 -3300 -3300 -3300 -3300 -3300 -3300 -3300 -3300 -3300 -3300 -3300 -3300 -3300 -3300 -3300 -3300 -3300 -3300 -3300 -3300 -3300 -3300 -3300 -3300 -3300 -3300 -3300 -3300 -3300 -3300 -3300 -3300 -3300 -3300 -3300 -3300 -3300 -3300 -3300 -3300 -3300 -3300 -3300 -3300 -3300 -3300 -3300 -3300 -3300 -3300 -3300 -3300 
-3300 -3300 -3300 -3300 -3300 -3300 -3300 -3300 -3300 -3300 -3300 -3300 -3300 -3300 -3300 -3300 -3300 -3300 -3300 -3300 -3300 -3300 -3300 -3300 -3300 -3300 -3300 -3300 -3300 -3300 -3300 -3300 -3300 -3300 -3300 -3300 -3300 -3300 -3300 -3300 -3300 -3300 -3300 -3300 -3300 -3300 -3300 -3300 -3300 -3300 -3300 -3300 -3300 -3300 -3300 -3300 -3300 -3300 -3300 -3300 -3300 -3300 -3300 -3300 -3300 -3300 -3300 -3300 -3300 -3300 -3300 -3300 -3300 -3300 -3300 -3300 -3300 -3300 -3300 -3300 -3300 -3300 -3300 -3300 -3300 -3300 -3300 -3300 -3300 -3300 -3300 -3300 -3300 -3300 -3300 -3300 -3300 -3300 -3300 -3300 
-3300 -3300 -3300 -3300 -3300 -3300 -3300 -3300 -3300 -3300 -3300 -3300 -3300 -3300 -3300 -3300 -3300 -3300 -3300 -3300 -3300 -3300 -3300 -3300 -3300 -3300 -3300 -3300 -3300 -3300 -3300 -3300 -3300 -3300 -3300 -3300 -3300 -3300 -3300 -3300 -3300 -3300 -3300 -3300 -3300 -3300 -3300 -3300 -3300 -3300 -3300 -3300 -3300 -3300 -3300 -3300 -3300 -3300 -3300 -3300 -3300 -3300 -3300 -3300 -3300 -3300 -3300 -3300 -3300 -3300 -3300 -3300 -3300 -3300 -3300 -3300 -3300 -3300 -3300 -3300 -3300 -3300 -3300 -3300 -3300 -3300 -3300 -3300 -3300 -3300 -3300 -3300 -3300 -3300 -3300 -3300 -3300 -3300 -3300 -3300 

-3300 -3300 -3300 -3300 -3300 -3300 -3300 -3300 -3300 -3300 -3300 -3300 -3300 -3300 -3300 -3300 -3300 -3300 -3300 -3300 -3300 -3300 -3300 -3300 -3300 -3300 -3300 -3300 -3300 -3300 -3300 -3300 -3300 -3300 -3300 -3300 -3300 -3300 -3300 -3300 -3300 -3300 -3300 -3300 -3300 -3300 -3300 -3300 -3300 -3300 -3300 -3300 -3300 -3300 -3300 -3300 -3300 -3300 -3300 -3300 -3300 -3300 -3300 -3300 -3300 -3300 -3300 -3300 -3300 -3300 -3300 -3300 -3300 -3300 -3300 -3300 -3300 -3300 -3300 -3300 -3300 -3300 -3300 -3300 -3300 -3300 -3300 -3300 -3300 -3300 -3300 -3300 -3300 -3300 -3300 -3300 -3300 -3300 -3300 -3300 
-3300 -3300 -3300 -3300 -3300 -3300 -3300 -3300 -3300 -3300 -3300 -3300 -3300 -3300 -3300 -3300 -3300 -3300 -3300 -3300 -3300 -3300 -3300 -3300 -3300 -3300 -3300 -3300 -3300 -3300 -3300 -3300 -3300 -3300 -3300 -3300 -3300 -3300 -3300 -3300 -3300 -3300 -3300 -3300 -3300 -3300 -3300 -3300 -3300 -3300 -3300 -3300 -3300 -3300 -3300 -3300 -3300 -3300 -3300 -3300 -3300 -3300 -3300 -3300 -3300 -3300 -3300 -3300 -3300 -3300 -3300 -3300 -3300 -3300 -3300 -3300 -3300 -3300 -3300 -3300 -3300 -3300 -3300 -3300 -3300 -3300 -3300 -3300 -3300 -3300 -3300 -3300 -3300 -3300 -3300 -3300 -3300 -3300 -3300 -3300 
-3300 -3300 -3300 -3300 -3300 -3300 -3300 -3300 -3300 -3300 -3300 -3300 -3300 -3300 -3300 -3300 -3300 -3300 -3300 -3300 -3300 -3300 -3300 -3300 -3300 -3300 -3300 -3300 -3300 -3300 -3300 -3300 -3300 -3300 -3300 -3300 -3300 -3300 -3300 -3300 -3300 -3300 -3300 -3300 -3300 -3300 -3300 -3300 -3300 -3300 -3300 -3300 -3300 -3300 -3300 -3300 -3300 -3300 -3300 -3300 -3300 -3300 -3300 -3300 -3300 -3300 -3300 -3300 -3300 -3300 -3300 -3300 -3300 -3300 -3300 -3300 -3300 -3300 -3300 -3300 -3300 -3300 -3300 -3300 -3300 -3300 -3300 -3300 -3300 -3300 -3300 -3300 -3300 -3300 -3300 -3300 -3300 -3300 -3300 -3300 
-3300 -3300 -3300 -3300 -3300 -3300 -3300 -3300 -3300 -3300 -3300 -3300 -3300 -3300 -3300 -3300 -3300 -3300 -3300 -3300 -3300 -3300 -3300 -3300 -3300 -3300 -3300 -3300 -3300 -3300 -3300 -3300 -3300 -3300 -3300 -3300 -3300 -3300 -3300 -3300 -3300 -3300 -3300 -3300 -3300 -3300 -3300 -3300 -3300 -3300 -3300 -3300 -3300 -3300 -3300 -3300 -3300 -3300 -3300 -3300 -3300 -3300 -3300 -3300 -3300 -3300 -3300 -3300 -3300 -3300 -3300 -3300 -3300 -3300 -3300 -3300 -3300 -3300 -3300 -3300 -3300 -3300 -3300 -3300 -3300 -3300 -3300 -3300 -3300 -3300 -3300 -3300 -3300 -3300 -3300 -3300 -3300 -3300 -3300 -3300 
2106.912 3248.0347 3299.8992 3299.8992 3299.8992 3299.8992 3299.8992 3299.8992 3299.8992 3299.8992 3299.8992 3299.8992 3299.8992 3299.8992 3299.8992 3299.8992 3299.8992 3299.8992 2939.566 1661.7828 392.2577 -684.91516 -1520.1874 -2503.0974 -3256.2927 -3241.9922 -3227.7922 -3213.9954 -3200.601 -3186.7034 -3173.3093 -3159.915 -3146.7224 -3133.6304 -3120.639 -3107.6477 -3094.9585 -3082.2693 -2167.5383 -894.0857 275.3357 1229.8462 1877.4994 2560.8032 3299.8992 3299.8992 3299.8992 3299.8992 3299.8992 3299.8992 3299.8992 3299.8992 3299.8992 3299.8992 3299.8992 3299.8992 3299.295 2297.351 819.7632 -498.0011 -1490.5792 -2208.2244 -2741.4734 -3251.8616 -3237.6616 -3223.764 -3210.0676 -3196.0693 -3182.675 -3169.1802 -3155.9875 -3142.7947 -3129.7026 -3116.812 -3103.9214 -3091.2322 -3078.543 -2424.5452 -1063.0737 203.32947 1239.7156 2069.3481 2619.3145 3264.148 3299.8992 3299.8992 3299.8992 3299.8992 3299.8992 3299.8992 3299.8992 3299.8992 3299.8992 3299.8992 3299.8992 3299.8992 3299.8992 3187.4084 2305.4077 1380.5054 
-3300 -3300 -3300 -3300 -3300 -3300 -3300 -3300 -3300 -3300 -3300 -3300 -3300 -3300 -3300 -3300 -3300 -3300 -3300 -3300 -3300 -3300 -3300 -3300 -3300 -3300 -3300 -3300 -3300 -3300 -3300 -3300 -3300 -3300 -3300 -3300 -3300 -3300 -3300 -3300 -3300 -3300 -3300 -3300 -3300 -3300 -3300 -3300 -3300 -3300 -3300 -3300 -3300 -3300 -3300 -3300 -3300 -3300 -3300 -3300 -3300 -3300 -3300 -3300 -3300 -3300 -3300 -3300 -3300 -3300 -3300 -3300 -3300 -3300 -3300 -3300 -3300 -3300 -3300 -3300 -3300 -3300 -3300 -3300 -3300 -3300 -3300 -3300 -3300 -3300 -3300 -3300 -3300 -3300 -3300 -3300 -3300 -3300 -3300 -3300 
-3300 -3300 -3300 -3300 -3300 -3300 -3300 -3300 -3300 -3300 -3300 -3300 -3300 -3300 -3300 -3300 -3300 -3300 -3300 -3300 -3300 -3300 -3300 -3300 -3300 -3300 -3300 -3300 -3300 -3300 -3300 -3300 -3300 -3300 -3300 -3300 -3300 -3300 -3300 -3300 -3300 -3300 -3300 -3300 -3300 -3300 -3300 -3300 -3300 -3300 -3300 -3300 -3300 -3300 -3300 -3300 -3300 -3300 -3300 -3300 -3300 -3300 -3300 -3300 -3300 -3300 -3300 -3300 -3300 -3300 -3300 -3300 -3300 -3300 -3300 -3300 -3300 -3300 -3300 -3300 -3300 -3300 -3300 -3300 -3300 -3300 -3300 -3300 -3300 -3300 -3300 -3300 -3300 -3300 -3300 -3300 -3300 -3300 -3300 -3300 
-3300 -3300 -3300 -3300 -3300 -3300 -3300 -3300 -3300 -3300 -3300 -3300 -3300 -3300 -3300 -3300 -3300 -3300 -3300 -3300 -3300 -3300 -3300 -3300 -3300 -3300 -3300 -3300 -3300 -3300 -3300 -3300 -3300 -3300 -3300 -3300 -3300 -3300 -3300 -3300 -3300 -3300 -3300 -3300 -3300 -3300 -3300 -3300 -3300 -3300 -3300 -3300 -3300 -3300 -3300 -3300 -3300 -3300 -3300 -3300 -3300 -3300 -3300 -3300 -3300 -3300 -3300 -3300 -3300 -3300 -3300 -3300 -3300 -3300 -3300 -3300 -3300 -3300 -3300 -3300 -3300 -3300 -3300 -3300 -3300 -3300 -3300 -3300 -3300 -3300 -3300 -3300 -3300 -3300 -3300 -3300 -3300 -3300 -3300 -3300 

-3300 -3300 -3300 -3300 -3300 -3300 -3300 -3300 -3300 -3300 -3300 -3300 -3300 -3300 -3300 -3300 -3300 -3300 -3300 -3300 -3300 -3300 -3300 -3300 -3300 -3300 -3300 -3300 -3300 -3300 -3300 -3300 -3300 -3300 -3300 -3300 -3300 -3300 -3300 -3300 -3300 -3300 -3300 -3300 -3300 -3300 -3300 -3300 -3300 -3300 -3300 -3300 -3300 -3300 -3300 -3300 -3300 -3300 -3300 -3300 -3300 -3300 -3300 -3300 -3300 -3300 -3300 -3300 -3300 -3300 -3300 -3300 -3300 -3300 -3300 -3300 -3300 -3300 -3300 -3300 -3300 -3300 -3300 -3300 -3300 -3300 -3300 -3300 -3300 -3300 -3300 -3300 -3300 -3300 -3300 -3300 -3300 -3300 -3300 -3300 
-3300 -3300 -3300 -3300 -3300 -3300 -3300 -3300 -3300 -3300 -3300 -3300 -3300 -3300 -3300 -3300 -3300 -3300 -3300 -3300 -3300 -3300 -3300 -3300 -3300 -3300 -3300 -3300 -3300 -3300 -3300 -3300 -3300 -3300 -3300 -3300 -3300 -3300 -3300 -3300 -3300 -3300 -3300 -3300 -3300 -3300 -3300 -3300 -3300 -3300 -3300 -3300 -3300 -3300 -3300 -3300 -3300 -3300 -3300 -3300 -3300 -3300 -3300 -3300 -3300 -3300 -3300 -3300 -3300 -3300 -3300 -3300 -3300 -3300 -3300 -3300 -3300 -3300 -3300 -3300 -3300 -3300 -3300 -3300 -3300 -3300 -3300 -3300 -3300 -3300 -3300 -3300 -3300 -3300 -3300 -3300 -3300 -3300 -3300 -3300 
-3300 -3300 -3300 -3300 -3300 -3300 -3300 -3300 -3300 -3300 -3300 -3300 -3300 -3300 -3300 -3300 -3300 -3300 -3300 -3300 -3300 -3300 -3300 -3300 -3300 -3300 -3300 -3300 -3300 -3300 -3300 -3300 -3300 -3300 -3300 -3300 -3300 -3300 -3300 -3300 -3300 -3300 -3300 -3300 -3300 -3300 -3300 -3300 -3300 -3300 -3300 -3300 -3300 -3300 -3300 -3300 -3300 -3300 -3300 -3300 -3300 -3300 -3300 -3300 -3300 -3300 -3300 -3300 -3300 -3300 -3300 -3300 -3300 -3300 -3300 -3300 -3300 -3300 -3300 -3300 -3300 -3300 -3300 -3300 -3300 -3300 -3300 -3300 -3300 -3300 -3300 -3300 -3300 -3300 -3300 -3300 -3300 -3300 -3300 -3300 
-3300 -3300 -3300 -3300 -3300 -3300 -3300 -3300 -3300 -3300 -3300 -3300 -3300 -3300 -3300 -3300 -3300 -3300 -3300 -3300 -3300 -3300 -3300 -3300 -3300 -3300 -3300 -3300 -3300 -3300 -3300 -3300 -3300 -3300 -3300 -3300 -3300 -3300 -3300 -3300 -3300 -3300 -3300 -3300 -3300 -3300 -3300 -3300 -3300 -3300 -3300 -3300 -3300 -3300 -3300 -3300 -3300 -3300 -3300 -3300 -3300 -3300 -3300 -3300 -3300 -3300 -3300 -3300 -3300 -3300 -3300 -3300 -3300 -3300 -3300 -3300 -3300 -3300 -3300 -3300 -3300 -3300 -3300 -3300 -3300 -3300 -3300 -3300 -3300 -3300 -3300 -3300 -3300 -3300 -3300 -3300 -3300 -3300 -3300 -3300 
593.8751 -24.169922 -401.2207 -760.04333 -1266.2018 -2063.0034 -2743.0847 -3276.4343 -3262.2344 -3248.1353 -3234.137 -3220.4407 -3206.9458 -3026.6785 -2217.288 -1094.696 90.03296 1325.6195 2616.9983 3299.8992 3299.8992 3299.8992 3299.8992 3299.8992 3299.8992 3299.8992 3299.295 3285.1958 3272.0032 3258.5083 3245.2148 3232.1228 3219.1313 3205.9387 3192.8467 3175.122 2243.573 547.1466 -1330.957 -2958.5999 3191.8396 3206.9458 3221.4478 3235.9497 3250.3508 3264.5508 3278.952 3292.9504 3299.8992 -3279.4556 -3265.7593 -3252.1636 -3238.568 -3225.2747 -3211.8804 -3198.6877 -3185.4949 -3172.5037 -3159.5122 -2817.5078 -2084.0515 -1408.6029 -777.5665 -56.396484 761.25183 1689.1754 2530.7922 3299.8992 3299.8992 3299.8992 3299.8992 3299.8992 3299.8992 3299.8992 3299.8992 3299.8992 3235.144 2719.9219 2221.6187 1757.5562 1434.787 1203.1586 1118.0603 873.23914 618.4479 169.89441 -186.2091 -639.69727 -718.65234 -415.72266 -256.4026 -306.35376 -441.20178 -53.57666 676.6571 1521.698 2370.0623 3180.8623 3230.4106 3217.8223 
-3300 -3300 -3300 -3300 -3300 -3300 -3300 -3300 -3300 -3300 -3300 -3300 -3300 -3300 -3300 -3300 -3300 -3300 -3300 -3300 -3300 -3300 -3300 -3300 -3300 -3300 -3300 -3300 -3300 -3300 -3300 -3300 -3300 -3300 -3300 -3300 -3300 -3300 -3300 -3300 -3300 -3300 -3300 -3300 -3300 -3300 -3300 -3300 -3300 -3300 -3300 -3300 -3300 -3300 -3300 -3300 -3300 -3300 -3300 -3300 -3300 -3300 -3300 -3300 -3300 -3300 -3300 -3300 -3300 -3300 -3300 -3300 -3300 -3300 -3300 -3300 -3300 -3300 -3300 -3300 -3300 -3300 -3300 -3300 -3300 -3300 -3300 -3300 -3300 -3300 -3300 -3300 -3300 -3300 -3300 -3300 -3300 -3300 -3300 -3300 
-3300 -3300 -3300 -3300 -3300 -3300 -3300 -3300 -3300 -3300 -3300 -3300 -3300 -3300 -3300 -3300 -3300 -3300 -3300 -3300 -3300 -3300 -3300 -3300 -3300 -3300 -3300 -3300 -3300 -3300 -3300 -3300 -3300 -3300 -3300 -3300 -3300 -3300 -3300 -3300 -3300 -3300 -3300 -3300 -3300 -3300 -3300 -3300 -3300 -3300 -3300 -3300 -3300 -3300 -3300 -3300 -3300 -3300 -3300 -3300 -3300 -3300 -3300 -3300 -3300 -3300 -3300 -3300 -3300 -3300 -3300 -3300 -3300 -3300 -3300 -3300 -3300 -3300 -3300 -3300 -3300 -3300 -3300 -3300 -3300 -3300 -3300 -3300 -3300 -3300 -3300 -3300 -3300 -3300 -3300 -3300 -3300 -3300 -3300 -3300 
-3300 -3300 -3300 -3300 -3300 -3300 -3300 -3300 -3300 -3300 -3300 -3300 -3300 -3300 -3300 -3300 -3300 -3300 -3300 -3300 -3300 -3300 -3300 -3300 -3300 -3300 -3300 -3300 -3300 -3300 -3300 -3300 -3300 -3300 -3300 -3300 -3300 -3300 -3300 -3300 -3300 -3300 -3300 -3300 -3300 -3300 -3300 -3300 -3300 -3300 -3300 -3300 -3300 -3300 -3300 -3300 -3300 -3300 -3300 -3300 -3300 -3300 -3300 -3300 -3300 -3300 -3300 -3300 -3300 -3300 -3300 -3300 -3300 -3300 -3300 -3300 -3300 -3300 -3300 -3300 -3300 -3300 -3300 -3300 -3300 -3300 -3300 -3300 -3300 -3300 -3300 -3300 -3300 -3300 -3300 -3300 -3300 -3300 -3300 -3300 

-3300 -3300 -3300 -3300 -3300 -3300 -3300 -3300 -3300 -3300 -3300 -3300 -3300 -3300 -3300 -3300 -3300 -3300 -3300 -3300 -3300 -3300 -3300 -3300 -3300 -3300 -3300 -3300 -3300 -3300 -3300 -3300 -3300 -3300 -3300 -3300 -3300 -3300 -3300 -3300 -3300 -3300 -3300 -3300 -3300 -3300 -3300 -3300 -3300 -3300 -3300 -3300 -3300 -3300 -3300 -3300 -3300 -3300 -3300 -3300 -3300 -3300 -3300 -3300 -3300 -3300 -3300 -3300 -3300 -3300 -3300 -3300 -3300 -3300 -3300 -3300 -3300 -3300 -3300 -3300 -3300 -3300 -3300 -3300 -3300 -3300 -3300 -3300 -3300 -3300 -3300 -3300 -3300 -3300 -3300 -3300 -3300 -3300 -3300 -3300 
-3300 -3300 -3300 -3300 -3300 -3300 -3300 -3300 -3300 -3300 -3300 -3300 -3300 -3300 -3300 -3300 -3300 -3300 -3300 -3300 -3300 -3300 -3300 -3300 -3300 -3300 -3300 -3300 -3300 -3300 -3300 -3300 -3300 -3300 -3300 -3300 -3300 -3300 -3300 -3300 -3300 -3300 -3300 -3300 -3300 -3300 -3300 -3300 -3300 -3300 -3300 -3300 -3300 -3300 -3300 -3300 -3300 -3300 -3300 -3300 -3300 -3300 -3300 -3300 -3300 -3300 -3300 -3300 -3300 -3300 -3300 -3300 -3300 -3300 -3300 -3300 -3300 -3300 -3300 -3300 -3300 -3300 -3300 -3300 -3300 -3300 -3300 -3300 -3300 -3300 -3300 -3300 -3300 -3300 -3300 -3300 -3300 -3300 -3300 -3300 
-3300 -3300 -3300 -3300 -3300 -3300 -3300 -3300 -3300 -3300 -3300 -3300 -3300 -3300 -3300 -3300 -3300 -3300 -3300 -3300 -3300 -3300 -3300 -3300 -3300 -3300 -3300 -3300 -3300 -3300 -3300 -3300 -3300 -3300 -3300 -3300 -3300 -3300 -3300 -3300 -3300 -3300 -3300 -3300 -3300 -3300 -3300 -3300 -3300 -3300 -3300 -3300 -3300 -3300 -3300 -3300 -3300 -3300 -3300 -3300 -3300 -3300 -3300 -3300 -3300 -3300 -3300 -3300 -3300 -3300 -3300 -3300 -3300 -3300 -3300 -3300 -3300 -3300 -3300 -3300 -3300 -3300 -3300 -3300 -3300 -3300 -3300 -3300 -3300 -3300 -3300 -3300 -3300 -3300 -3300 -3300 -3300 -3300 -3300 -3300 
-3300 -3300 -3300 -3300 -3300 -3300 -3300 -3300 -3300 -3300 -3300 -3300 -3300 -3300 -3300 -3300 -3300 -3300 -3300 -3300 -3300 -3300 -3300 -3300 -3300 -3300 -3300 -3300 -3300 -3300 -3300 -3300 -3300 -3300 -3300 -3300 -3300 -3300 -3300 -3300 -3300 -3300 -3300 -3300 -3300 -3300 -3300 -3300 -3300 -3300 -3300 -3300 -3300 -3300 -3300 -3300 -3300 -3300 -3300 -3300 -3300 -3300 -3300 -3300 -3300 -3300 -3300 -3300 -3300 -3300 -3300 -3300 -3300 -3300 -3300 -3300 -3300 -3300 -3300 -3300 -3300 -3300 -3300 -3300 -3300 -3300 -3300 -3300 -3300 -3300 -3300 -3300 -3300 -3300 -3300 -3300 -3300 -3300 -3300 -3300 
3205.0322 3191.9402 3179.251 3166.5618 3153.8726 3141.3848 3129.1992 3116.3086 3104.3242 3092.34 3080.4565 3068.4722 3056.6895 3044.9065 3032.9224 3021.1394 3009.4573 2997.876 2986.1938 2974.6123 2963.1316 2950.7446 2937.5518 2921.0356 2490.1062 1824.1241 1058.844 232.53479 -150.55847 -134.6466 -349.15466 -748.5626 -1235.788 -1278.3875 -816.2384 -203.02734 -304.13818 -323.97766 165.9668 546.24023 1036.8896 1587.8632 2049.9114 2556.0698 2890.3198 2879.8462 2869.574 2858.2947 2848.123 2837.6494 2827.2766 2816.9036 2806.7322 2796.5605 2786.2883 2775.8147 2764.4348 2513.6719 1615.3564 720.16296 -26.083374 -665.5792 -1179.9957 -1753.4271 -2499.7742 3143.097 2796.762 2813.4795 2829.5928 2845.5046 2861.215 2876.6235 2891.8303 2906.9365 2921.9421 2936.746 3132.5225 -2367.8467 -959.3445 372.72034 1487.3566 2293.4233 2941.58 2930.4016 2918.82 2907.2388 2895.3552 2883.3708 2872.0916 2860.6108 2849.231 2837.9517 2826.471 2815.2922 2803.8115 2792.5322 2781.253 2770.0745 2758.8958 2746.0051 
-3300 -3300 -3300 -3300 -3300 -3300 -3300 -3300 -3300 -3300 -3300 -3300 -3300 -3300 -3300 -3300 -3300 -3300 -3300 -3300 -3300 -3300 -3300 -3300 -3300 -3300 -3300 -3300 -3300 -3300 -3300 -3300 -3300 -3300 -3300 -3300 -3300 -3300 -3300 -3300 -3300 -3300 -3300 -3300 -3300 -3300 -3300 -3300 -3300 -3300 -3300 -3300 -3300 -3300 -3300 -3300 -3300 -3300 -3300 -3300 -3300 -3300 -3300 -3300 -3300 -3300 -3300 -3300 -3300 -3300 -3300 -3300 -3300 -3300 -3300 -3300 -3300 -3300 -3300 -3300 -3300 -3300 -3300 -3300 -3300 -3300 -3300 -3300 -3300 -3300 -3300 -3300 -3300 -3300 -3300 -3300 -3300 -3300 -3300 -3300 
-3300 -3300 -3300 -3300 -3300 -3300 -3300 -3300 -3300 -3300 -3300 -3300 -3300 -3300 -3300 -3300 -3300 -3300 -3300 -3300 -3300 -3300 -3300 -3300 -3300 -3300 -3300 -3300 -3300 -3300 -3300 -3300 -3300 -3300 -3300 -3300 -3300 -3300 -3300 -3300 -3300 -3300 -3300 -3300 -3300 -3300 -3300 -3300 -3300 -3300 -3300 -3300 -3300 -3300 -3300 -3300 -3300 -3300 -3300 -3300 -3300 -3300 -3300 -3300 -3300 -3300 -3300 -3300 -3300 -3300 -3300 -3300 -3300 -3300 -3300 -3300 -3300 -3300 -3300 -3300 -3300 -3300 -3300 -3300 -3300 -3300 -3300 -3300 -3300 -3300 -3300 -3300 -3300 -3300 -3300 -3300 -3300 -3300 -3300 -3300 
-3300 -3300 -3300 -3300 -3300 -3300 -3300 -3300 -3300 -3300 -3300 -3300 -3300 -3300 -3300 -3300 -3300 -3300 -3300 -3300 -3300 -3300 -3300 -3300 -3300 -3300 -3300 -3300 -3300 -3300 -3300 -3300 -3300 -3300 -3300 -3300 -3300 -3300 -3300 -3300 -3300 -3300 -3300 -3300 -3300 -3300 -3300 -3300 -3300 -3300 -3300 -3300 -3300 -3300 -3300 -3300 -3300 -3300 -3300 -3300 -3300 -3300 -3300 -3300 -3300 -3300 -3300 -3300 -3300 -3300 -3300 -3300 -3300 -3300 -3300 -3300 -3300 -3300 -3300 -3300 -3300 -3300 -3300 -3300 -3300 -3300 -3300 -3300 -3300 -3300 -3300 -3300 -3300 -3300 -3300 -3300 -3300 -3300 -3300 -3300 

-3300 -3300 -3300 -3300 -3300 -3300 -3300 -3300 -3300 -3300 -3300 -3300 -3300 -3300 -3300 -3300 -3300 -3300 -3300 -3300 -3300 -3300 -3300 -3300 -3300 -3300 -3300 -3300 -3300 -3300 -3300 -3300 -3300 -3300 -3300 -3300 -3300 -3300 -3300 -3300 -3300 -3300 -3300 -3300 -3300 -3300 -3300 -3300 -3300 -3300 -3300 -3300 -3300 -3300 -3300 -3300 -3300 -3300 -3300 -3300 -3300 -3300 -3300 -3300 -3300 -3300 -3300 -3300 -3300 -3300 -3300 -3300 -3300 -3300 -3300 -3300 -3300 -3300 -3300 -3300 -3300 -3300 -3300 -3300 -3300 -3300 -3300 -3300 -3300 -3300 -3300 -3300 -3300 -3300 -3300 -3300 -3300 -3300 -3300 -3300 
-3300 -3300 -3300 -3300 -3300 -3300 -3300 -3300 -3300 -3300 -3300 -3300 -3300 -3300 -3300 -3300 -3300 -3300 -3300 -3300 -3300 -3300 -3300 -3300 -3300 -3300 -3300 -3300 -3300 -3300 -3300 -3300 -3300 -3300 -3300 -3300 -3300 -3300 -3300 -3300 -3300 -3300 -3300 -3300 -3300 -3300 -3300 -3300 -3300 -3300 -3300 -3300 -3300 -3300 -3300 -3300 -3300 -3300 -3300 -3300 -3300 -3300 -3300 -3300 -3300 -3300 -3300 -3300 -3300 -3300 -3300 -3300 -3300 -3300 -3300 -3300 -3300 -3300 -3300 -3300 -3300 -3300 -3300 -3300 -3300 -3300 -3300 -3300 -3300 -3300 -3300 -3300 -3300 -3300 -3300 -3300 -3300 -3300 -3300 -3300 
-3300 -3300 -3300 -3300 -3300 -3300 -3300 -3300 -3300 -3300 -3300 -3300 -3300 -3300 -3300 -3300 -3300 -3300 -3300 -3300 -3300 -3300 -3300 -3300 -3300 -3300 -3300 -3300 -3300 -3300 -3300 -3300 -3300 -3300 -3300 -3300 -3300 -3300 -3300 -3300 -3300 -3300 -3300 -3300 -3300 -3300 -3300 -3300 -3300 -3300 -3300 -3300 -3300 -3300 -3300 -3300 -3300 -3300 -3300 -3300 -3300 -3300 -3300 -3300 -3300 -3300 -3300 -3300 -3300 -3300 -3300 -3300 -3300 -3300 -3300 -3300 -3300 -3300 -3300 -3300 -3300 -3300 -3300 -3300 -3300 -3300 -3300 -3300 -3300 -3300 -3300 -3300 -3300 -3300 -3300 -3300 -3300 -3300 -3300 -3300 
-3300 -3300 -3300 -3300 -3300 -3300 -3300 -3300 -3300 -3300 -3300 -3300 -3300 -3300 -3300 -3300 -3300 -3300 -3300 -3300 -3300 -3300 -3300 -3300 -3300 -3300 -3300 -3300 -3300 -3300 -3300 -3300 -3300 -3300 -3300 -3300 -3300 -3300 -3300 -3300 -3300 -3300 -3300 -3300 -3300 -3300 -3300 -3300 -3300 -3300 -3300 -3300 -3300 -3300 -3300 -3300 -3300 -3300 -3300 -3300 -3300 -3300 -3300 -3300 -3300 -3300 -3300 -3300 -3300 -3300 -3300 -3300 -3300 -3300 -3300 -3300 -3300 -3300 -3300 -3300 -3300 -3300 -3300 -3300 -3300 -3300 -3300 -3300 -3300 -3300 -3300 -3300 -3300 -3300 -3300 -3300 -3300 -3300 -3300 -3300 
2642.276 2046.0846 1348.7823 397.4945 -768.80493 -2083.6487 3257.6018 2758.191 2775.3113 2792.2302 2808.7463 2824.8596 2840.6707 2856.2805 2871.6887 2886.8958 2902.002 2916.9067 2931.7107 2946.3135 2998.6816 3287.5122 -2980.0505 -2533.612 -1875.3845 -1070.4254 -69.488525 793.8812 1232.666 1339.8193 1540.9332 2039.74 2507.9314 2329.3762 1710.5255 865.88745 -59.71985 -1105.9753 -2167.5383 -3168.274 2985.2874 3000.8972 3015.802 3030.5054 3044.9065 3059.1064 3073.3062 3087.1033 3100.7996 3114.4958 3128.1921 3141.687 3155.182 3168.576 3181.9702 3195.3643 3208.5571 3221.6492 3234.8418 3247.9338 -3248.639 -2599.1729 -1911.6394 -1004.36096 225.38452 1571.7499 3040.0725 3254.1777 3241.1865 3227.5908 3214.2974 3200.9033 3187.7104 3174.2156 3160.922 3147.4272 3132.5225 2792.2302 1774.173 847.6593 -12.991333 -657.4219 -1225.1129 -1862.796 -3024.9663 3144.104 3158.7065 3173.7122 3188.0127 3202.4138 3216.7144 3230.8135 3244.9126 3258.8103 3272.708 3286.4043 3299.7986 -2872.3938 -1507.5989 -153.3783 
-3300 -3300 -3300 -3300 -3300 -3300 -3300 -3300 -3300 -3300 -3300 -3300 -3300 -3300 -3300 -3300 -3300 -3300 -3300 -3300 -3300 -3300 -3300 -3300 -3300 -3300 -3300 -3300 -3300 -3300 -3300 -3300 -3300 -3300 -3300 -3300 -3300 -3300 -3300 -3300 -3300 -3300 -3300 -3300 -3300 -3300 -3300 -3300 -3300 -3300 -3300 -3300 -3300 -3300 -3300 -3300 -3300 -3300 -3300 -3300 -3300 -3300 -3300 -3300 -3300 -3300 -3300 -3300 -3300 -3300 -3300 -3300 -3300 -3300 -3300 -3300 -3300 -3300 -3300 -3300 -3300 -3300 -3300 -3300 -3300 -3300 -3300 -3300 -3300 -3300 -3300 -3300 -3300 -3300 -3300 -3300 -3300 -3300 -3300 -3300 
-3300 -3300 -3300 -3300 -3300 -3300 -3300 -3300 -3300 -3300 -3300 -3300 -3300 -3300 -3300 -3300 -3300 -3300 -3300 -3300 -3300 -3300 -3300 -3300 -3300 -3300 -3300 -3300 -3300 -3300 -3300 -3300 -3300 -3300 -3300 -3300 -3300 -3300 -3300 -3300 -3300 -3300 -3300 -3300 -3300 -3300 -3300 -3300 -3300 -3300 -3300 -3300 -3300 -3300 -3300 -3300 -3300 -3300 -3300 -3300 -3300 -3300 -3300 -3300 -3300 -3300 -3300 -3300 -3300 -3300 -3300 -3300 -3300 -3300 -3300 -3300 -3300 -3300 -3300 -3300 -3300 -3300 -3300 -3300 -3300 -3300 -3300 -3300 -3300 -3300 -3300 -3300 -3300 -3300 -3300 -3300 -3300 -3300 -3300 -3300 
-3300 -3300 -3300 -3300 -3300 -3300 -3300 -3300 -3300 -3300 -3300 -3300 -3300 -3300 -3300 -3300 -3300 -3300 -3300 -3300 -3300 -3300 -3300 -3300 -3300 -3300 -3300 -3300 -3300 -3300 -3300 -3300 -3300 -3300 -3300 -3300 -3300 -3300 -3300 -3300 -3300 -3300 -3300 -3300 -3300 -3300 -3300 -3300 -3300 -3300 -3300 -3300 -3300 -3300 -3300 -3300 -3300 -3300 -3300 -3300 -3300 -3300 -3300 -3300 -3300 -3300 -3300 -3300 -3300 -3300 -3300 -3300 -3300 -3300 -3300 -3300 -3300 -3300 -3300 -3300 -3300 -3300 -3300 -3300 -3300 -3300 -3300 -3300 -3300 -3300 -3300 -3300 -3300 -3300 -3300 -3300 -3300 -3300 -3300 -3300 

-3300 -3300 -3300 -3300 -3300 -3300 -3300 -3300 -3300 -3300 -3300 -3300 -3300 -3300 -3300 -3300 -3300 -3300 -3300 -3300 -3300 -3300 -3300 -3300 -3300 -3300 -3300 -3300 -3300 -3300 -3300 -3300 -3300 -3300 -3300 -3300 -3300 -3300 -3300 -3300 -3300 -3300 -3300 -3300 -3300 -3300 -3300 -3300 -3300 -3300 -3300 -3300 -3300 -3300 -3300 -3300 -3300 -3300 -3300 -3300 -3300 -3300 -3300 -3300 -3300 -3300 -3300 -3300 -3300 -3300 -3300 -3300 -3300 -3300 -3300 -3300 -3300 -3300 -3300 -3300 -3300 -3300 -3300 -3300 -3300 -3300 -3300 -3300 -3300 -3300 -3300 -3300 -3300 -3300 -3300 -3300 -3300 -3300 -3300 -3300 -3300 -3300 -3300 -3300 -3300 -3300 -3300 -3300 -3300 -3300 -3300 -3300 -3300 -3300 -3300 -3300 -3300 -3300 -3300 -3300 
-3300 -3300 -3300 -3300 -3300 -3300 -3300 -3300 -3300 -3300 -3300 -3300 -3300 -3300 -3300 -3300 -3300 -3300 -3300 -3300 -3300 -3300 -3300 -3300 -3300 -3300 -3300 -3300 -3300 -3300 -3300 -3300 -3300 -3300 -3300 -3300 -3300 -3300 -3300 -3300 -3300 -3300 -3300 -3300 -3300 -3300 -3300 -3300 -3300 -3300 -3300 -3300 -3300 -3300 -3300 -3300 -3300 -3300 -3300 -3300 -3300 -3300 -3300 -3300 -3300 -3300 -3300 -3300 -3300 -3300 -3300 -3300 -3300 -3300 -3300 -3300 -3300 -3300 -3300 -3300 -3300 -3300 -3300 -3300 -3300 -3300 -3300 -3300 -3300 -3300 -3300 -3300 -3300 -3300 -3300 -3300 -3300 -3300 -3300 -3300 -3300 -3300 -3300 -3300 -3300 -3300 -3300 -3300 -3300 -3300 -3300 -3300 -3300 -3300 -3300 -3300 -3300 -3300 -3300 -3300 
-3300 -3300 -3300 -3300 -3300 -3300 -3300 -3300 -3300 -3300 -3300 -3300 -3300 -3300 -3300 -3300 -3300 -3300 -3300 -3300 -3300 -3300 -3300 -3300 -3300 -3300 -3300 -3300 -3300 -3300 -3300 -3300 -3300 -3300 -3300 -3300 -3300 -3300 -3300 -3300 -3300 -3300 -3300 -3300 -3300 -3300 -3300 -3300 -3300 -3300 -3300 -3300 -3300 -3300 -3300 -3300 -3300 -3300 -3300 -3300 -3300 -3300 -3300 -3300 -3300 -3300 -3300 -3300 -3300 -3300 -3300 -3300 -3300 -3300 -3300 -3300 -3300 -3300 -3300 -3300 -3300 -3300 -3300 -3300 -3300 -3300 -3300 -3300 -3300 -3300 -3300 -3300 -3300 -3300 -3300 -3300 -3300 -3300 -3300 -3300 -3300 -3300 -3300 -3300 -3300 -3300 -3300 -3300 -3300 -3300 -3300 -3300 -3300 -3300 -3300 -3300 -3300 -3300 -3300 -3300 
-3300 -3300 -3300 -3300 -3300 -3300 -3300 -3300 -3300 -3300 -3300 -3300 -3300 -3300 -3300 -3300 -3300 -3300 -3300 -3300 -3300 -3300 -3300 -3300 -3300 -3300 -3300 -3300 -3300 -3300 -3300 -3300 -3300 -3300 -3300 -3300 -3300 -3300 -3300 -3300 -3300 -3300 -3300 -3300 -3300 -3300 -3300 -3300 -3300 -3300 -3300 -3300 -3300 -3300 -3300 -3300 -3300 -3300 -3300 -3300 -3300 -3300 -3300 -3300 -3300 -3300 -3300 -3300 -3300 -3300 -3300 -3300 -3300 -3300 -3300 -3300 -3300 -3300 -3300 -3300 -3300 -3300 -3300 -3300 -3300 -3300 -3300 -3300 -3300 -3300 -3300 -3300 -3300 -3300 -3300 -3300 -3300 -3300 -3300 -3300 -3300 -3300 -3300 -3300 -3300 -3300 -3300 -3300 -3300 -3300 -3300 -3300 -3300 -3300 -3300 -3300 -3300 -3300 -3300 -3300 
1034.7748 2057.4646 2852.2522 3285.498 3272.406 3259.0117 3245.7183 3231.72 3218.1243 3205.0322 3191.8396 3178.6467 3165.6555 3152.362 3139.1692 3125.9766 3112.985 3099.7925 3084.8877 2644.0886 1626.6357 708.2794 -185.60486 -1350.9979 -3192.6453 3091.2322 3106.137 3121.344 3136.0474 3150.5493 3165.1519 3179.5532 3193.8538 3207.953 3222.052 3236.1511 3250.1494 3293.8567 -2038.7329 -386.0138 1016.54663 2268.8506 3253.5735 3240.6829 3227.5908 3214.4988 3201.5076 3187.8113 3174.7192 3161.7278 3148.6357 3135.745 3122.9553 3110.0647 3097.0732 3084.1826 3071.0906 3058.3008 3045.6116 3032.8215 3017.0105 2682.559 1711.9354 352.1759 -1908.0139 3015.1978 3030.5054 3046.115 3061.1206 3076.126 3091.0308 3105.6335 3120.1355 3134.6375 3149.0386 3163.339 3177.4382 -2556.1707 -614.621 1343.9484 3036.6484 3167.871 3154.5776 3141.8884 3129.0984 3116.4092 3103.6194 3090.628 3078.3416 3065.7532 3053.2654 3041.1804 3028.6926 3016.2048 3003.9185 2991.5312 2979.4463 2967.0593 2954.9744 2942.99 2929.596 2631.7017 1408.7036 -300.81482 -2951.9531 2935.8398 2951.7517 2967.3613 2982.5684 2997.6746 3012.68 3027.5847 3042.389 3056.8909 3071.5942 3086.0962 3100.296 3114.7979 -2225.949 -307.86438 
-3300 -3300 -3300 -3300 -3300 -3300 -3300 -3300 -3300 -3300 -3300 -3300 -3300 -3300 -3300 -3300 -3300 -3300 -3300 -3300 -3300 -3300 -3300 -3300 -3300 -3300 -3300 -3300 -3300 -3300 -3300 -3300 -3300 -3300 -3300 -3300 -3300 -3300 -3300 -3300 -3300 -3300 -3300 -3300 -3300 -3300 -3300 -3300 -3300 -3300 -3300 -3300 -3300 -3300 -3300 -3300 -3300 -3300 -3300 -3300 -3300 -3300 -3300 -3300 -3300 -3300 -3300 -3300 -3300 -3300 -3300 -3300 -3300 -3300 -3300 -3300 -3300 -3300 -3300 -3300 -3300 -3300 -3300 -3300 -3300 -3300 -3300 -3300 -3300 -3300 -3300 -3300 -3300 -3300 -3300 -3300 -3300 -3300 -3300 -3300 -3300 -3300 -3300 -3300 -3300 -3300 -3300 -3300 -3300 -3300 -3300 -3300 -3300 -3300 -3300 -3300 -3300 -3300 -3300 -3300 
-3300 -3300 -3300 -3300 -3300 -3300 -3300 -3300 -3300 -3300 -3300 -3300 -3300 -3300 -3300 -3300 -3300 -3300 -3300 -3300 -3300 -3300 -3300 -3300 -3300 -3300 -3300 -3300 -3300 -3300 -3300 -3300 -3300 -3300 -3300 -3300 -3300 -3300 -3300 -3300 -3300 -3300 -3300 -3300 -3300 -3300 -3300 -3300 -3300 -3300 -3300 -3300 -3300 -3300 -3300 -3300 -3300 -3300 -3300 -3300 -3300 -3300 -3300 -3300 -3300 -3300 -3300 -3300 -3300 -3300 -3300 -3300 -3300 -3300 -3300 -3300 -3300 -3300 -3300 -3300 -3300 -3300 -3300 -3300 -3300 -3300 -3300 -3300 -3300 -3300 -3300 -3300 -3300 -3300 -3300 -3300 -3300 -3300 -3300 -3300 -3300 -3300 -3300 -3300 -3300 -3300 -3300 -3300 -3300 -3300 -3300 -3300 -3300 -3300 -3300 -3300 -3300 -3300 -3300 -3300 
-3300 -3300 -3300 -3300 -3300 -3300 -3300 -3300 -3300 -3300 -3300 -3300 -3300 -3300 -3300 -3300 -3300 -3300 -3300 -3300 -3300 -3300 -3300 -3300 -3300 -3300 -3300 -3300 -3300 -3300 -3300 -3300 -3300 -3300 -3300 -3300 -3300 -3300 -3300 -3300 -3300 -3300 -3300 -3300 -3300 -3300 -3300 -3300 -3300 -3300 -3300 -3300 -3300 -3300 -3300 -3300 -3300 -3300 -3300 -3300 -3300 -3300 -3300 -3300 -3300 -3300 -3300 -3300 -3300 -3300 -3300 -3300 -3300 -3300 -3300 -3300 -3300 -3300 -3300 -3300 -3300 -3300 -3300 -3300 -3300 -3300 -3300 -3300 -3300 -3300 -3300 -3300 -3300 -3300 -3300 -3300 -3300 -3300 -3300 -3300 -3300 -3300 -3300 -3300 -3300 -3300 -3300 -3300 -3300 -3300 -3300 -3300 -3300 -3300 -3300 -3300 -3300 -3300 -3300 -3300 

-3300 -3300 -3300 -3300 -3300 -3300 -3300 -3300 -3300 -3300 -3300 -3300 -3300 -3300 -3300 -3300 -3300 -3300 -3300 -3300 -3300 -3300 -3300 -3300 -3300 -3300 -3300 -3300 -3300 -3300 -3300 -3300 -3300 -3300 -3300 -3300 -3300 -3300 -3300 -3300 -3300 -3300 -3300 -3300 -3300 -3300 -3300 -3300 -3300 -3300 -3300 -3300 -3300 -3300 -3300 -3300 -3300 -3300 -3300 -3300 -3300 -3300 -3300 -3300 -3300 -3300 -3300 -3300 -3300 -3300 -3300 -3300 -3300 -3300 -3300 -3300 -3300 -3300 -3300 -3300 -3300 -3300 -3300 -3300 -3300 -3300 -3300 -3300 -3300 -3300 -3300 -3300 -3300 -3300 -3300 -3300 -3300 -3300 -3300 -3300 
-3300 -3300 -3300 -3300 -3300 -3300 -3300 -3300 -3300 -3300 -3300 -3300 -3300 -3300 -3300 -3300 -3300 -3300 -3300 -3300 -3300 -3300 -3300 -3300 -3300 -3300 -3300 -3300 -3300 -3300 -3300 -3300 -3300 -3300 -3300 -3300 -3300 -3300 -3300 -3300 -3300 -3300 -3300 -3300 -3300 -3300 -3300 -3300 -3300 -3300 -3300 -3300 -3300 -3300 -3300 -3300 -3300 -3300 -3300 -3300 -3300 -3300 -3300 -3300 -3300 -3300 -3300 -3300 -3300 -3300 -3300 -3300 -3300 -3300 -3300 -3300 -3300 -3300 -3300 -3300 -3300 -3300 -3300 -3300 -3300 -3300 -3300 -3300 -3300 -3300 -3300 -3300 -3300 -3300 -3300 -3300 -3300 -3300 -3300 -3300 
-3300 -3300 -3300 -3300 -3300 -3300 -3300 -3300 -3300 -3300 -3300 -3300 -3300 -3300 -3300 -3300 -3300 -3300 -3300 -3300 -3300 -3300 -3300 -3300 -3300 -3300 -3300 -3300 -3300 -3300 -3300 -3300 -3300 -3300 -3300 -3300 -3300 -3300 -3300 -3300 -3300 -3300 -3300 -3300 -3300 -3300 -3300 -3300 -3300 -3300 -3300 -3300 -3300 -3300 -3300 -3300 -3300 -3300 -3300 -3300 -3300 -3300 -3300 -3300 -3300 -3300 -3300 -3300 -3300 -3300 -3300 -3300 -3300 -3300 -3300 -3300 -3300 -3300 -3300 -3300 -3300 -3300 -3300 -3300 -3300 -3300 -3300 -3300 -3300 -3300 -3300 -3300 -3300 -3300 -3300 -3300 -3300 -3300 -3300 -3300 
-3300 -3300 -3300 -3300 -3300 -3300 -3300 -3300 -3300 -3300 -3300 -3300 -3300 -3300 -3300 -3300 -3300 -3300 -3300 -3300 -3300 -3300 -3300 -3300 -3300 -3300 -3300 -3300 -3300 -3300 -3300 -3300 -3300 -3300 -3300 -3300 -3300 -3300 -3300 -3300 -3300 -3300 -3300 -3300 -3300 -3300 -3300 -3300 -3300 -3300 -3300 -3300 -3300 -3300 -3300 -3300 -3300 -3300 -3300 -3300 -3300 -3300 -3300 -3300 -3300 -3300 -3300 -3300 -3300 -3300 -3300 -3300 -3300 -3300 -3300 -3300 -3300 -3300 -3300 -3300 -3300 -3300 -3300 -3300 -3300 -3300 -3300 -3300 -3300 -3300 -3300 -3300 -3300 -3300 -3300 -3300 -3300 -3300 -3300 -3300 
1454.9286 2848.3245 3101.4038 3089.0166 3076.7302 3064.4438 3051.8555 3039.0654 3026.9805 3014.795 3002.71 2990.7256 2978.6406 2966.5557 2954.1687 2941.983 2929.7974 2917.6116 2905.6274 2893.5425 2620.0195 1636.5051 295.27588 -1394.3024 2888.0034 2904.318 2920.4314 2935.8398 2951.0466 2966.3542 2981.5613 2996.466 3011.27 3026.0742 3040.6768 3055.2795 3069.58 3083.9812 3098.0803 3112.2803 3126.3794 3140.0757 3190.5303 -2475.7048 -134.6466 1941.0461 3150.5493 3136.9536 3124.063 3111.2732 3098.3826 3085.5925 3072.8027 3059.912 2895.4558 937.49084 -1699.7498 3054.9773 3070.285 3085.492 3100.4973 3115.1 3130.005 3144.6074 3159.0088 3173.3093 3187.207 3201.3062 3214.9016 3228.598 3241.9922 3255.5876 3268.881 3282.2754 3295.3674 -3291.4397 -3278.3477 -3265.3564 -3252.4658 -3239.7766 -3227.0874 -3214.2974 -3202.011 -2295.0347 966.59546 3299.8992 3299.8992 3299.8992 3299.8992 3299.8992 3299.8992 3299.8992 3298.6907 3284.793 3270.5933 3256.3933 3242.2942 3227.9937 2516.8945 663.6658 
-3300 -3300 -3300 -3300 -3300 -3300 -3300 -3300 -3300 -3300 -3300 -3300 -3300 -3300 -3300 -3300 -3300 -3300 -3300 -3300 -3300 -3300 -3300 -3300 -3300 -3300 -3300 -3300 -3300 -3300 -3300 -3300 -3300 -3300 -3300 -3300 -3300 -3300 -3300 -3300 -3300 -3300 -3300 -3300 -3300 -3300 -3300 -3300 -3300 -3300 -3300 -3300 -3300 -3300 -3300 -3300 -3300 -3300 -3300 -3300 -3300 -3300 -3300 -3300 -3300 -3300 -3300 -3300 -3300 -3300 -3300 -3300 -3300 -3300 -3300 -3300 -3300 -3300 -3300 -3300 -3300 -3300 -3300 -3300 -3300 -3300 -3300 -3300 -3300 -3300 -3300 -3300 -3300 -3300 -3300 -3300 -3300 -3300 -3300 -3300 
-3300 -3300 -3300 -3300 -3300 -3300 -3300 -3300 -3300 -3300 -3300 -3300 -3300 -3300 -3300 -3300 -3300 -3300 -3300 -3300 -3300 -3300 -3300 -3300 -3300 -3300 -3300 -3300 -3300 -3300 -3300 -3300 -3300 -3300 -3300 -3300 -3300 -3300 -3300 -3300 -3300 -3300 -3300 -3300 -3300 -3300 -3300 -3300 -3300 -3300 -3300 -3300 -3300 -3300 -3300 -3300 -3300 -3300 -3300 -3300 -3300 -3300 -3300 -3300 -3300 -3300 -3300 -3300 -3300 -3300 -3300 -3300 -3300 -3300 -3300 -3300 -3300 -3300 -3300 -3300 -3300 -3300 -3300 -3300 -3300 -3300 -3300 -3300 -3300 -3300 -3300 -3300 -3300 -3300 -3300 -3300 -3300 -3300 -3300 -3300 
-3300 -3300 -3300 -3300 -3300 -3300 -3300 -3300 -3300 -3300 -3300 -3300 -3300 -3300 -3300 -3300 -3300 -3300 -3300 -3300 -3300 -3300 -3300 -3300 -3300 -3300 -3300 -3300 -3300 -3300 -3300 -3300 -3300 -3300 -3300 -3300 -3300 -3300 -3300 -3300 -3300 -3300 -3300 -3300 -3300 -3300 -3300 -3300 -3300 -3300 -3300 -3300 -3300 -3300 -3300 -3300 -3300 -3300 -3300 -3300 -3300 -3300 -3300 -3300 -3300 -3300 -3300 -3300 -3300 -3300 -3300 -3300 -3300 -3300 -3300 -3300 -3300 -3300 -3300 -3300 -3300 -3300 -3300 -3300 -3300 -3300 -3300 -3300 -3300 -3300 -3300 -3300 -3300 -3300 -3300 -3300 -3300 -3300 -3300 -3300 

-3300 -3300 -3300 -3300 -3300 -3300 -3300 -3300 -3300 -3300 -3300 -3300 -3300 -3300 -3300 -3300 -3300 -3300 -3300 -3300 -3300 -3300 -3300 -3300 -3300 -3300 -3300 -3300 -3300 -3300 -3300 -3300 -3300 -3300 -3300 -3300 -3300 -3300 -3300 -3300 -3300 -3300 -3300 -3300 -3300 -3300 -3300 -3300 -3300 -3300 -3300 -3300 -3300 -3300 -3300 -3300 -3300 -3300 -3300 -3300 -3300 -3300 -3300 -3300 -3300 -3300 -3300 -3300 -3300 -3300 -3300 -3300 -3300 -3300 -3300 -3300 -3300 -3300 -3300 -3300 -3300 -3300 -3300 -3300 -3300 -3300 -3300 -3300 -3300 -3300 -3300 -3300 -3300 -3300 -3300 -3300 -3300 -3300 -3300 -3300 
-3300 -3300 -3300 -3300 -3300 -3300 -3300 -3300 -3300 -3300 -3300 -3300 -3300 -3300 -3300 -3300 -3300 -3300 -3300 -3300 -3300 -3300 -3300 -3300 -3300 -3300 -3300 -3300 -3300 -3300 -3300 -3300 -3300 -3300 -3300 -3300 -3300 -3300 -3300 -3300 -3300 -3300 -3300 -3300 -3300 -3300 -3300 -3300 -3300 -3300 -3300 -3300 -3300 -3300 -3300 -3300 -3300 -3300 -3300 -3300 -3300 -3300 -3300 -3300 -3300 -3300 -3300 -3300 -3300 -3300 -3300 -3300 -3300 -3300 -3300 -3300 -3300 -3300 -3300 -3300 -3300 -3300 -3300 -3300 -3300 -3300 -3300 -3300 -3300 -3300 -3300 -3300 -3300 -3300 -3300 -3300 -3300 -3300 -3300 -3300 
-3300 -3300 -3300 -3300 -3300 -3300 -3300 -3300 -3300 -3300 -3300 -3300 -3300 -3300 -3300 -3300 -3300 -3300 -3300 -3300 -3300 -3300 -3300 -3300 -3300 -3300 -3300 -3300 -3300 -3300 -3300 -3300 -3300 -3300 -3300 -3300 -3300 -3300 -3300 -3300 -3300 -3300 -3300 -3300 -3300 -3300 -3300 -3300 -3300 -3300 -3300 -3300 -3300 -3300 -3300 -3300 -3300 -3300 -3300 -3300 -3300 -3300 -3300 -3300 -3300 -3300 -3300 -3300 -3300 -3300 -3300 -3300 -3300 -3300 -3300 -3300 -3300 -3300 -3300 -3300 -3300 -3300 -3300 -3300 -3300 -3300 -3300 -3300 -3300 -3300 -3300 -3300 -3300 -3300 -3300 -3300 -3300 -3300 -3300 -3300 
-3300 -3300 -3300 -3300 -3300 -3300 -3300 -3300 -3300 -3300 -3300 -3300 -3300 -3300 -3300 -3300 -3300 -3300 -3300 -3300 -3300 -3300 -3300 -3300 -3300 -3300 -3300 -3300 -3300 -3300 -3300 -3300 -3300 -3300 -3300 -3300 -3300 -3300 -3300 -3300 -3300 -3300 -3300 -3300 -3300 -3300 -3300 -3300 -3300 -3300 -3300 -3300 -3300 -3300 -3300 -3300 -3300 -3300 -3300 -3300 -3300 -3300 -3300 -3300 -3300 -3300 -3300 -3300 -3300 -3300 -3300 -3300 -3300 -3300 -3300 -3300 -3300 -3300 -3300 -3300 -3300 -3300 -3300 -3300 -3300 -3300 -3300 -3300 -3300 -3300 -3300 -3300 -3300 -3300 -3300 -3300 -3300 -3300 -3300 -3300 
-1089.2578 -2482.1501 3233.7341 3248.3367 3262.9395 3277.24 3291.2383 3299.8992 -3280.5632 -3266.7664 -3252.9692 -3239.5752 -3225.9795 -3212.686 -3199.3926 -3186.4014 -3173.6113 -3161.023 -3148.5352 -3136.2488 -2173.9836 -712.8113 1249.7864 3299.8992 3299.8992 3299.8992 3299.8992 3299.8992 3299.8992 3299.8992 3299.8992 3299.8992 3299.8992 3299.8992 3299.8992 3293.6553 3279.3547 3265.0542 3247.4304 2125.8452 -7.7545166 -1800.4578 3253.775 3268.4783 3283.081 3297.2808 -3288.217 -3274.3193 -3260.5225 -3246.6248 -3233.029 -3219.4336 -3206.0393 -3192.7458 -3179.5532 -3166.2598 -3153.3691 -3140.3777 -3127.6885 -3115.1 -2906.433 -1635.498 571.71936 3299.8992 3299.8992 3299.8992 3299.8992 3299.8992 3299.8992 3299.8992 3299.8992 3299.8992 3299.8992 3299.8992 3299.8992 3299.8992 3299.8992 3294.6624 2956.6863 669.2047 -1925.0336 3291.2383 3299.8992 -3279.959 -3265.6584 -3251.5593 -3237.561 -3223.6633 -3210.1685 -3196.7742 -3183.2793 -3169.9858 -3156.7932 -3143.7012 -3130.7097 -3117.92 -3105.2307 -3092.642 -3080.2551 -3068.0693 
-3300 -3300 -3300 -3300 -3300 -3300 -3300 -3300 -3300 -3300 -3300 -3300 -3300 -3300 -3300 -3300 -3300 -3300 -3300 -3300 -3300 -3300 -3300 -3300 -3300 -3300 -3300 -3300 -3300 -3300 -3300 -3300 -3300 -3300 -3300 -3300 -3300 -3300 -3300 -3300 -3300 -3300 -3300 -3300 -3300 -3300 -3300 -3300 -3300 -3300 -3300 -3300 -3300 -3300 -3300 -3300 -3300 -3300 -3300 -3300 -3300 -3300 -3300 -3300 -3300 -3300 -3300 -3300 -3300 -3300 -3300 -3300 -3300 -3300 -3300 -3300 -3300 -3300 -3300 -3300 -3300 -3300 -3300 -3300 -3300 -3300 -3300 -3300 -3300 -3300 -3300 -3300 -3300 -3300 -3300 -3300 -3300 -3300 -3300 -3300 
-3300 -3300 -3300 -3300 -3300 -3300 -3300 -3300 -3300 -3300 -3300 -3300 -3300 -3300 -3300 -3300 -3300 -3300 -3300 -3300 -3300 -3300 -3300 -3300 -3300 -3300 -3300 -3300 -3300 -3300 -3300 -3300 -3300 -3300 -3300 -3300 -3300 -3300 -3300 -3300 -3300 -3300 -3300 -3300 -3300 -3300 -3300 -3300 -3300 -3300 -3300 -3300 -3300 -3300 -3300 -3300 -3300 -3300 -3300 -3300 -3300 -3300 -3300 -3300 -3300 -3300 -3300 -3300 -3300 -3300 -3300 -3300 -3300 -3300 -3300 -3300 -3300 -3300 -3300 -3300 -3300 -3300 -3300 -3300 -3300 -3300 -3300 -3300 -3300 -3300 -3300 -3300 -3300 -3300 -3300 -3300 -3300 -3300 -3300 -3300 
-3300 -3300 -3300 -3300 -3300 -3300 -3300 -3300 -3300 -3300 -3300 -3300 -3300 -3300 -3300 -3300 -3300 -3300 -3300 -3300 -3300 -3300 -3300 -3300 -3300 -3300 -3300 -3300 -3300 -3300 -3300 -3300 -3300 -3300 -3300 -3300 -3300 -3300 -3300 -3300 -3300 -3300 -3300 -3300 -3300 -3300 -3300 -3300 -3300 -3300 -3300 -3300 -3300 -3300 -3300 -3300 -3300 -3300 -3300 -3300 -3300 -3300 -3300 -3300 -3300 -3300 -3300 -3300 -3300 -3300 -3300 -3300 -3300 -3300 -3300 -3300 -3300 -3300 -3300 -3300 -3300 -3300 -3300 -3300 -3300 -3300 -3300 -3300 -3300 -3300 -3300 -3300 -3300 -3300 -3300 -3300 -3300 -3300 -3300 -3300 

-3300 -3300 -3300 -3300 -3300 -3300 -3300 -3300 -3300 -3300 -3300 -3300 -3300 -3300 -3300 -3300 -3300 -3300 -3300 -3300 -3300 -3300 -3300 -3300 -3300 -3300 -3300 -3300 -3300 -3300 -3300 -3300 -3300 -3300 -3300 -3300 -3300 -3300 -3300 -3300 -3300 -3300 -3300 -3300 -3300 -3300 -3300 -3300 -3300 -3300 -3300 -3300 -3300 -3300 -3300 -3300 -3300 -3300 -3300 -3300 -3300 -3300 -3300 -3300 -3300 -3300 -3300 -3300 -3300 -3300 -3300 -3300 -3300 -3300 -3300 -3300 -3300 -3300 -3300 -3300 -3300 -3300 -3300 -3300 -3300 -3300 -3300 -3300 -3300 -3300 -3300 -3300 -3300 -3300 -3300 -3300 -3300 -3300 -3300 -3300 
-3300 -3300 -3300 -3300 -3300 -3300 -3300 -3300 -3300 -3300 -3300 -3300 -3300 -3300 -3300 -3300 -3300 -3300 -3300 -3300 -3300 -3300 -3300 -3300 -3300 -3300 -3300 -3300 -3300 -3300 -3300 -3300 -3300 -3300 -3300 -3300 -3300 -3300 -3300 -3300 -3300 -3300 -3300 -3300 -3300 -3300 -3300 -3300 -3300 -3300 -3300 -3300 -3300 -3300 -3300 -3300 -3300 -3300 -3300 -3300 -3300 -3300 -3300 -3300 -3300 -3300 -3300 -3300 -3300 -3300 -3300 -3300 -3300 -3300 -3300 -3300 -3300 -3300 -3300 -3300 -3300 -3300 -3300 -3300 -3300 -3300 -3300 -3300 -3300 -3300 -3300 -3300 -3300 -3300 -3300 -3300 -3300 -3300 -3300 -3300 
-3300 -3300 -3300 -3300 -3300 -3300 -3300 -3300 -3300 -3300 -3300 -3300 -3300 -3300 -3300 -3300 -3300 -3300 -3300 -3300 -3300 -3300 -3300 -3300 -3300 -3300 -3300 -3300 -3300 -3300 -3300 -3300 -3300 -3300 -3300 -3300 -3300 -3300 -3300 -3300 -3300 -3300 -3300 -3300 -3300 -3300 -3300 -3300 -3300 -3300 -3300 -3300 -3300 -3300 -3300 -3300 -3300 -3300 -3300 -3300 -3300 -3300 -3300 -3300 -3300 -3300 -3300 -3300 -3300 -3300 -3300 -3300 -3300 -3300 -3300 -3300 -3300 -3300 -3300 -3300 -3300 -3300 -3300 -3300 -3300 -3300 -3300 -3300 -3300 -3300 -3300 -3300 -3300 -3300 -3300 -3300 -3300 -3300 -3300 -3300 
-3300 -3300 -3300 -3300 -3300 -3300 -3300 -3300 -3300 -3300 -3300 -3300 -3300 -3300 -3300 -3300 -3300 -3300 -3300 -3300 -3300 -3300 -3300 -3300 -3300 -3300 -3300 -3300 -3300 -3300 -3300 -3300 -3300 -3300 -3300 -3300 -3300 -3300 -3300 -3300 -3300 -3300 -3300 -3300 -3300 -3300 -3300 -3300 -3300 -3300 -3300 -3300 -3300 -3300 -3300 -3300 -3300 -3300 -3300 -3300 -3300 -3300 -3300 -3300 -3300 -3300 -3300 -3300 -3300 -3300 -3300 -3300 -3300 -3300 -3300 -3300 -3300 -3300 -3300 -3300 -3300 -3300 -3300 -3300 -3300 -3300 -3300 -3300 -3300 -3300 -3300 -3300 -3300 -3300 -3300 -3300 -3300 -3300 -3300 -3300 
-3056.1858 -2159.8845 340.8966 3299.8992 3299.8992 3299.8992 3299.8992 3299.8992 3299.8992 3299.8992 3299.8992 3299.8992 3299.8992 3299.8992 3299.8992 3299.8992 3299.8992 3299.8992 3299.8992 2538.9495 565.17334 -1178.9886 -3276.9377 -3262.3352 -3248.0347 -3233.9355 -3220.2393 -3206.1401 -3192.6453 -3179.0496 -3165.756 -3152.5635 -3139.3706 -3126.2786 -3113.2874 -3100.4973 -3087.808 -1379.9011 2912.979 3299.8992 3299.8992 3299.8992 3299.8992 3299.8992 3299.8992 3299.8992 3299.8992 3299.8992 3299.8992 3299.8992 3299.8992 3299.8992 3299.8992 3299.8992 3288.5193 3274.6216 3260.623 3246.6248 3232.6262 3189.926 1349.3866 -916.04004 3222.4548 3237.4602 3252.2644 3266.7664 3280.966 3295.468 -3290.5334 -3276.535 -3262.6372 -3248.941 -3235.2446 -3221.6492 -3208.255 -3195.0623 -3181.7688 -3168.6768 -3155.484 -3142.694 -3129.7026 -3116.812 -2374.8962 -73.21472 3141.8884 3299.8992 3299.8992 3299.8992 3299.8992 3299.8992 3299.8992 3299.8992 3299.8992 3299.8992 3299.8992 1841.6473 -1440.8295 -3254.2786 -3239.8772 -3225.6775 
-3300 -3300 -3300 -3300 -3300 -3300 -3300 -3300 -3300 -3300 -3300 -3300 -3300 -3300 -3300 -3300 -3300 -3300 -3300 -3300 -3300 -3300 -3300 -3300 -3300 -3300 -3300 -3300 -3300 -3300 -3300 -3300 -3300 -3300 -3300 -3300 -3300 -3300 -3300 -3300 -3300 -3300 -3300 -3300 -3300 -3300 -3300 -3300 -3300 -3300 -3300 -3300 -3300 -3300 -3300 -3300 -3300 -3300 -3300 -3300 -3300 -3300 -3300 -3300 -3300 -3300 -3300 -3300 -3300 -3300 -3300 -3300 -3300 -3300 -3300 -3300 -3300 -3300 -3300 -3300 -3300 -3300 -3300 -3300 -3300 -3300 -3300 -3300 -3300 -3300 -3300 -3300 -3300 -3300 -3300 -3300 -3300 -3300 -3300 -3300 
-3300 -3300 -3300 -3300 -3300 -3300 -3300 -3300 -3300 -3300 -3300 -3300 -3300 -3300 -3300 -3300 -3300 -3300 -3300 -3300 -3300 -3300 -3300 -3300 -3300 -3300 -3300 -3300 -3300 -3300 -3300 -3300 -3300 -3300 -3300 -3300 -3300 -3300 -3300 -3300 -3300 -3300 -3300 -3300 -3300 -3300 -3300 -3300 -3300 -3300 -3300 -3300 -3300 -3300 -3300 -3300 -3300 -3300 -3300 -3300 -3300 -3300 -3300 -3300 -3300 -3300 -3300 -3300 -3300 -3300 -3300 -3300 -3300 -3300 -3300 -3300 -3300 -3300 -3300 -3300 -3300 -3300 -3300 -3300 -3300 -3300 -3300 -3300 -3300 -3300 -3300 -3300 -3300 -3300 -3300 -3300 -3300 -3300 -3300 -3300 
-3300 -3300 -3300 -3300 -3300 -3300 -3300 -3300 -3300 -3300 -3300 -3300 -3300 -3300 -3300 -3300 -3300 -3300 -3300 -3300 -3300 -3300 -3300 -3300 -3300 -3300 -3300 -3300 -3300 -3300 -3300 -3300 -3300 -3300 -3300 -3300 -3300 -3300 -3300 -3300 -3300 -3300 -3300 -3300 -3300 -3300 -3300 -3300 -3300 -3300 -3300 -3300 -3300 -3300 -3300 -3300 -3300 -3300 -3300 -3300 -3300 -3300 -3300 -3300 -3300 -3300 -3300 -3300 -3300 -3300 -3300 -3300 -3300 -3300 -3300 -3300 -3300 -3300 -3300 -3300 -3300 -3300 -3300 -3300 -3300 -3300 -3300 -3300 -3300 -3300 -3300 -3300 -3300 -3300 -3300 -3300 -3300 -3300 -3300 -3300 

-3300 -3300 -3300 -3300 -3300 -3300 -3300 -3300 -3300 -3300 -3300 -3300 -3300 -3300 -3300 -3300 -3300 -3300 -3300 -3300 -3300 -3300 -3300 -3300 -3300 -3300 -3300 -3300 -3300 -3300 -3300 -3300 -3300 -3300 -3300 -3300 -3300 -3300 -3300 -3300 -3300 -3300 -3300 -3300 -3300 -3300 -3300 -3300 -3300 -3300 -3300 -3300 -3300 -3300 -3300 -3300 -3300 -3300 -3300 -3300 -3300 -3300 -3300 -3300 -3300 -3300 -3300 -3300 -3300 -3300 -3300 -3300 -3300 -3300 -3300 -3300 -3300 -3300 -3300 -3300 -3300 -3300 -3300 -3300 -3300 -3300 -3300 -3300 -3300 -3300 -3300 -3300 -3300 -3300 -3300 -3300 -3300 -3300 -3300 -3300 
-3300 -3300 -3300 -3300 -3300 -3300 -3300 -3300 -3300 -3300 -3300 -3300 -3300 -3300 -3300 -3300 -3300 -3300 -3300 -3300 -3300 -3300 -3300 -3300 -3300 -3300 -3300 -3300 -3300 -3300 -3300 -3300 -3300 -3300 -3300 -3300 -3300 -3300 -3300 -3300 -3300 -3300 -3300 -3300 -3300 -3300 -3300 -3300 -3300 -3300 -3300 -3300 -3300 -3300 -3300 -3300 -3300 -3300 -3300 -3300 -3300 -3300 -3300 -3300 -3300 -3300 -3300 -3300 -3300 -3300 -3300 -3300 -3300 -3300 -3300 -3300 -3300 -3300 -3300 -3300 -3300 -3300 -3300 -3300 -3300 -3300 -3300 -3300 -3300 -3300 -3300 -3300 -3300 -3300 -3300 -3300 -3300 -3300 -3300 -3300 
-3300 -3300 -3300 -3300 -3300 -3300 -3300 -3300 -3300 -3300 -3300 -3300 -3300 -3300 -3300 -3300 -3300 -3300 -3300 -3300 -3300 -3300 -3300 -3300 -3300 -3300 -3300 -3300 -3300 -3300 -3300 -3300 -3300 -3300 -3300 -3300 -3300 -3300 -3300 -3300 -3300 -3300 -3300 -3300 -3300 -3300 -3300 -3300 -3300 -3300 -3300 -3300 -3300 -3300 -3300 -3300 -3300 -3300 -3300 -3300 -3300 -3300 -3300 -3300 -3300 -3300 -3300 -3300 -3300 -3300 -3300 -3300 -3300 -3300 -3300 -3300 -3300 -3300 -3300 -3300 -3300 -3300 -3300 -3300 -3300 -3300 -3300 -3300 -3300 -3300 -3300 -3300 -3300 -3300 -3300 -3300 -3300 -3300 -3300 -3300 
-3300 -3300 -3300 -3300 -3300 -3300 -3300 -3300 -3300 -3300 -3300 -3300 -3300 -3300 -3300 -3300 -3300 -3300 -3300 -3300 -3300 -3300 -3300 -3300 -3300 -3300 -3300 -3300 -3300 -3300 -3300 -3300 -3300 -3300 -3300 -3300 -3300 -3300 -3300 -3300 -3300 -3300 -3300 -3300 -3300 -3300 -3300 -3300 -3300 -3300 -3300 -3300 -3300 -3300 -3300 -3300 -3300 -3300 -3300 -3300 -3300 -3300 -3300 -3300 -3300 -3300 -3300 -3300 -3300 -3300 -3300 -3300 -3300 -3300 -3300 -3300 -3300 -3300 -3300 -3300 -3300 -3300 -3300 -3300 -3300 -3300 -3300 -3300 -3300 -3300 -3300 -3300 -3300 -3300 -3300 -3300 -3300 -3300 -3300 -3300 
-3211.7798 -3198.0835 -3184.2864 -3170.691 -3157.2966 -3144.0032 -3131.1125 -3117.7185 -3104.9285 -3092.1387 -3079.651 -3067.163 -3054.776 -3042.7917 -3030.7068 -3019.0247 -3007.3425 -2995.8618 -2984.381 -2973.1018 -2962.024 -2916.403 -1453.3173 1074.8566 3299.8992 3299.8992 3299.8992 3299.8992 3299.8992 3299.8992 3299.8992 3299.8992 3299.8992 3299.8992 3299.8992 3299.8992 3299.8992 3299.8992 3299.8992 3299.8992 2994.6533 2478.5247 1700.6561 288.72986 -1498.0316 -3150.65 -3185.8977 -3172.2014 -3158.606 -3144.9097 -3131.5154 -3118.4233 -3105.3313 -3092.2393 -3002.6091 -2051.0193 -417.23328 1326.0223 2870.4802 3299.8992 3299.8992 3299.8992 3299.8992 3299.8992 3299.8992 3299.8992 3299.8992 3299.8992 3299.8992 3299.8992 3299.8992 3299.8992 3299.8992 3299.8992 3295.5688 3281.8726 3268.2769 3254.48 3153.9734 2287.7837 1382.1167 658.22754 -299.90845 -1487.8601 -2782.4614 3249.3438 3263.745 3278.549 3292.749 -3293.051 -3279.0527 -3265.155 -3251.2573 -3237.6616 -3224.0662 -2576.715 -1371.4417 -65.76233 1132.1594 2040.8478 
-3300 -3300 -3300 -3300 -3300 -3300 -3300 -3300 -3300 -3300 -3300 -3300 -3300 -3300 -3300 -3300 -3300 -3300 -3300 -3300 -3300 -3300 -3300 -3300 -3300 -3300 -3300 -3300 -3300 -3300 -3300 -3300 -3300 -3300 -3300 -3300 -3300 -3300 -3300 -3300 -3300 -3300 -3300 -3300 -3300 -3300 -3300 -3300 -3300 -3300 -3300 -3300 -3300 -3300 -3300 -3300 -3300 -3300 -3300 -3300 -3300 -3300 -3300 -3300 -3300 -3300 -3300 -3300 -3300 -3300 -3300 -3300 -3300 -3300 -3300 -3300 -3300 -3300 -3300 -3300 -3300 -3300 -3300 -3300 -3300 -3300 -3300 -3300 -3300 -3300 -3300 -3300 -3300 -3300 -3300 -3300 -3300 -3300 -3300 -3300 
-3300 -3300 -3300 -3300 -3300 -3300 -3300 -3300 -3300 -3300 -3300 -3300 -3300 -3300 -3300 -3300 -3300 -3300 -3300 -3300 -3300 -3300 -3300 -3300 -3300 -3300 -3300 -3300 -3300 -3300 -3300 -3300 -3300 -3300 -3300 -3300 -3300 -3300 -3300 -3300 -3300 -3300 -3300 -3300 -3300 -3300 -3300 -3300 -3300 -3300 -3300 -3300 -3300 -3300 -3300 -3300 -3300 -3300 -3300 -3300 -3300 -3300 -3300 -3300 -3300 -3300 -3300 -3300 -3300 -3300 -3300 -3300 -3300 -3300 -3300 -3300 -3300 -3300 -3300 -3300 -3300 -3300 -3300 -3300 -3300 -3300 -3300 -3300 -3300 -3300 -3300 -3300 -3300 -3300 -3300 -3300 -3300 -3300 -3300 -3300 
-3300 -3300 -3300 -3300 -3300 -3300 -3300 -3300 -3300 -3300 -3300 -3300 -3300 -3300 -3300 -3300 -3300 -3300 -3300 -3300 -3300 -3300 -3300 -3300 -3300 -3300 -3300 -3300 -3300 -3300 -3300 -3300 -3300 -3300 -3300 -3300 -3300 -3300 -3300 -3300 -3300 -3300 -3300 -3300 -3300 -3300 -3300 -3300 -3300 -3300 -3300 -3300 -3300 -3300 -3300 -3300 -3300 -3300 -3300 -3300 -3300 -3300 -3300 -3300 -3300 -3300 -3300 -3300 -3300 -3300 -3300 -3300 -3300 -3300 -3300 -3300 -3300 -3300 -3300 -3300 -3300 -3300 -3300 -3300 -3300 -3300 -3300 -3300 -3300 -3300 -3300 -3300 -3300 -3300 -3300 -3300 -3300 -3300 -3300 -3300 

-3300 -3300 -3300 -3300 -3300 -3300 -3300 -3300 -3300 -3300 -3300 -3300 -3300 -3300 -3300 -3300 -3300 -3300 -3300 -3300 -3300 -3300 -3300 -3300 -3300 -3300 -3300 -3300 -3300 -3300 -3300 -3300 -3300 -3300 -3300 -3300 -3300 -3300 -3300 -3300 -3300 -3300 -3300 -3300 -3300 -3300 -3300 -3300 -3300 -3300 -3300 -3300 -3300 -3300 -3300 -3300 -3300 -3300 -3300 -3300 -3300 -3300 -3300 -3300 -3300 -3300 -3300 -3300 -3300 -3300 -3300 -3300 -3300 -3300 -3300 -3300 -3300 -3300 -3300 -3300 -3300 -3300 -3300 -3300 -3300 -3300 -3300 -3300 -3300 -3300 -3300 -3300 -3300 -3300 -3300 -3300 -3300 -3300 -3300 -3300 
-3300 -3300 -3300 -3300 -3300 -3300 -3300 -3300 -3300 -3300 -3300 -3300 -3300 -3300 -3300 -3300 -3300 -3300 -3300 -3300 -3300 -3300 -3300 -3300 -3300 -3300 -3300 -3300 -3300 -3300 -3300 -3300 -3300 -3300 -3300 -3300 -3300 -3300 -3300 -3300 -3300 -3300 -3300 -3300 -3300 -3300 -3300 -3300 -3300 -3300 -3300 -3300 -3300 -3300 -3300 -3300 -3300 -3300 -3300 -3300 -3300 -3300 -3300 -3300 -3300 -3300 -3300 -3300 -3300 -3300 -3300 -3300 -3300 -3300 -3300 -3300 -3300 -3300 -3300 -3300 -3300 -3300 -3300 -3300 -3300 -3300 -3300 -3300 -3300 -3300 -3300 -3300 -3300 -3300 -3300 -3300 -3300 -3300 -3300 -3300 
-3300 -3300 -3300 -3300 -3300 -3300 -3300 -3300 -3300 -3300 -3300 -3300 -3300 -3300 -3300 -3300 -3300 -3300 -3300 -3300 -3300 -3300 -3300 -3300 -3300 -3300 -3300 -3300 -3300 -3300 -3300 -3300 -3300 -3300 -3300 -3300 -3300 -3300 -3300 -3300 -3300 -3300 -3300 -3300 -3300 -3300 -3300 -3300 -3300 -3300 -3300 -3300 -3300 -3300 -3300 -3300 -3300 -3300 -3300 -3300 -3300 -3300 -3300 -3300 -3300 -3300 -3300 -3300 -3300 -3300 -3300 -3300 -3300 -3300 -3300 -3300 -3300 -3300 -3300 -3300 -3300 -3300 -3300 -3300 -3300 -3300 -3300 -3300 -3300 -3300 -3300 -3300 -3300 -3300 -3300 -3300 -3300 -3300 -3300 -3300 
-3300 -3300 -3300 -3300 -3300 -3300 -3300 -3300 -3300 -3300 -3300 -3300 -3300 -3300 -3300 -3300 -3300 -3300 -3300 -3300 -3300 -3300 -3300 -3300 -3300 -3300 -3300 -3300 -3300 -3300 -3300 -3300 -3300 -3300 -3300 -3300 -3300 -3300 -3300 -3300 -3300 -3300 -3300 -3300 -3300 -3300 -3300 -3300 -3300 -3300 -3300 -3300 -3300 -3300 -3300 -3300 -3300 -3300 -3300 -3300 -3300 -3300 -3300 -3300 -3300 -3300 -3300 -3300 -3300 -3300 -3300 -3300 -3300 -3300 -3300 -3300 -3300 -3300 -3300 -3300 -3300 -3300 -3300 -3300 -3300 -3300 -3300 -3300 -3300 -3300 -3300 -3300 -3300 -3300 -3300 -3300 -3300 -3300 -3300 -3300 
2889.917 3299.8992 3299.8992 3299.8992 3299.8992 3299.8992 3292.3462 3277.8442 3264.5508 3251.056 3237.561 3224.1667 3210.974 3197.882 3184.6892 3171.698 3158.3037 3027.182 2244.7815 1370.4346 592.3645 30.111694 -714.0198 -1705.7922 -2664.1296 3156.6924 3171.3958 3186.502 3201.004 3215.4053 3229.7058 3243.9055 3258.1055 3272.1038 -2962.8296 -2150.2166 -1066.4978 23.867798 906.27136 1651.712 2277.713 2671.0784 3151.7578 3246.7253 3233.8347 3220.642 3207.55 3193.451 3180.5603 3167.4683 3154.4768 3141.5862 3128.6956 3115.6035 3101.8066 3012.0757 2195.4346 1293.0908 430.42603 -378.05786 -1039.7095 -1608.609 -2260.391 -3142.1904 3116.7114 3131.7168 3146.2188 3161.325 3175.6255 3190.0269 3204.2266 3218.527 3232.4248 3246.524 3260.5225 3274.2188 3288.0156 3299.8992 -3284.8938 -3271.399 -3257.904 -3244.4092 -3231.3171 -3024.9663 -2650.4333 -2169.351 -1830.4688 -1923.6237 -1923.523 -1774.8779 -1285.1349 -1076.1658 -1167.3065 -1413.6383 -1795.4224 -2067.8374 -2368.8538 -2561.7095 -2744.4946 -2834.3262 
-3300 -3300 -3300 -3300 -3300 -3300 -3300 -3300 -3300 -3300 -3300 -3300 -3300 -3300 -3300 -3300 -3300 -3300 -3300 -3300 -3300 -3300 -3300 -3300 -3300 -3300 -3300 -3300 -3300 -3300 -3300 -3300 -3300 -3300 -3300 -3300 -3300 -3300 -3300 -3300 -3300 -3300 -3300 -3300 -3300 -3300 -3300 -3300 -3300 -3300 -3300 -3300 -3300 -3300 -3300 -3300 -3300 -3300 -3300 -3300 -3300 -3300 -3300 -3300 -3300 -3300 -3300 -3300 -3300 -3300 -3300 -3300 -3300 -3300 -3300 -3300 -3300 -3300 -3300 -3300 -3300 -3300 -3300 -3300 -3300 -3300 -3300 -3300 -3300 -3300 -3300 -3300 -3300 -3300 -3300 -3300 -3300 -3300 -3300 -3300 
-3300 -3300 -3300 -3300 -3300 -3300 -3300 -3300 -3300 -3300 -3300 -3300 -3300 -3300 -3300 -3300 -3300 -3300 -3300 -3300 -3300 -3300 -3300 -3300 -3300 -3300 -3300 -3300 -3300 -3300 -3300 -3300 -3300 -3300 -3300 -3300 -3300 -3300 -3300 -3300 -3300 -3300 -3300 -3300 -3300 -3300 -3300 -3300 -3300 -3300 -3300 -3300 -3300 -3300 -3300 -3300 -3300 -3300 -3300 -3300 -3300 -3300 -3300 -3300 -3300 -3300 -3300 -3300 -3300 -3300 -3300 -3300 -3300 -3300 -3300 -3300 -3300 -3300 -3300 -3300 -3300 -3300 -3300 -3300 -3300 -3300 -3300 -3300 -3300 -3300 -3300 -3300 -3300 -3300 -3300 -3300 -3300 -3300 -3300 -3300 
-3300 -3300 -3300 -3300 -3300 -3300 -3300 -3300 -3300 -3300 -3300 -3300 -3300 -3300 -3300 -3300 -3300 -3300 -3300 -3300 -3300 -3300 -3300 -3300 -3300 -3300 -3300 -3300 -3300 -3300 -3300 -3300 -3300 -3300 -3300 -3300 -3300 -3300 -3300 -3300 -3300 -3300 -3300 -3300 -3300 -3300 -3300 -3300 -3300 -3300 -3300 -3300 -3300 -3300 -3300 -3300 -3300 -3300 -3300 -3300 -3300 -3300 -3300 -3300 -3300 -3300 -3300 -3300 -3300 -3300 -3300 -3300 -3300 -3300 -3300 -3300 -3300 -3300 -3300 -3300 -3300 -3300 -3300 -3300 -3300 -3300 -3300 -3300 -3300 -3300 -3300 -3300 -3300 -3300 -3300 -3300 -3300 -3300 -3300 -3300 

-3300 -3300 -3300 -3300 -3300 -3300 -3300 -3300 -3300 -3300 -3300 -3300 -3300 -3300 -3300 -3300 -3300 -3300 -3300 -3300 -3300 -3300 -3300 -3300 -3300 -3300 -3300 -3300 -3300 -3300 -3300 -3300 -3300 -3300 -3300 -3300 -3300 -3300 -3300 -3300 -3300 -3300 -3300 -3300 -3300 -3300 -3300 -3300 -3300 -3300 -3300 -3300 -3300 -3300 -3300 -3300 -3300 -3300 -3300 -3300 -3300 -3300 -3300 -3300 -3300 -3300 -3300 -3300 -3300 -3300 -3300 -3300 -3300 -3300 -3300 -3300 -3300 -3300 -3300 -3300 -3300 -3300 -3300 -3300 -3300 -3300 -3300 -3300 -3300 -3300 -3300 -3300 -3300 -3300 -3300 -3300 -3300 -3300 -3300 -3300 -3300 -3300 -3300 -3300 -3300 -3300 -3300 -3300 -3300 -3300 -3300 -3300 -3300 -3300 -3300 -3300 -3300 -3300 -3300 -3300 
-3300 -3300 -3300 -3300 -3300 -3300 -3300 -3300 -3300 -3300 -3300 -3300 -3300 -3300 -3300 -3300 -3300 -3300 -3300 -3300 -3300 -3300 -3300 -3300 -3300 -3300 -3300 -3300 -3300 -3300 -3300 -3300 -3300 -3300 -3300 -3300 -3300 -3300 -3300 -3300 -3300 -3300 -3300 -3300 -3300 -3300 -3300 -3300 -3300 -3300 -3300 -3300 -3300 -3300 -3300 -3300 -3300 -3300 -3300 -3300 -3300 -3300 -3300 -3300 -3300 -3300 -3300 -3300 -3300 -3300 -3300 -3300 -3300 -3300 -3300 -3300 -3300 -3300 -3300 -3300 -3300 -3300 -3300 -3300 -3300 -3300 -3300 -3300 -3300 -3300 -3300 -3300 -3300 -3300 -3300 -3300 -3300 -3300 -3300 -3300 -3300 -3300 -3300 -3300 -3300 -3300 -3300 -3300 -3300 -3300 -3300 -3300 -3300 -3300 -3300 -3300 -3300 -3300 -3300 -3300 
-3300 -3300 -3300 -3300 -3300 -3300 -3300 -3300 -3300 -3300 -3300 -3300 -3300 -3300 -3300 -3300 -3300 -3300 -3300 -3300 -3300 -3300 -3300 -3300 -3300 -3300 -3300 -3300 -3300 -3300 -3300 -3300 -3300 -3300 -3300 -3300 -3300 -3300 -3300 -3300 -3300 -3300 -3300 -3300 -3300 -3300 -3300 -3300 -3300 -3300 -3300 -3300 -3300 -3300 -3300 -3300 -3300 -3300 -3300 -3300 -3300 -3300 -3300 -3300 -3300 -3300 -3300 -3300 -3300 -3300 -3300 -3300 -3300 -3300 -3300 -3300 -3300 -3300 -3300 -3300 -3300 -3300 -3300 -3300 -3300 -3300 -3300 -3300 -3300 -3300 -3300 -3300 -3300 -3300 -3300 -3300 -3300 -3300 -3300 -3300 -3300 -3300 -3300 -3300 -3300 -3300 -3300 -3300 -3300 -3300 -3300 -3300 -3300 -3300 -3300 -3300 -3300 -3300 -3300 -3300 
-3300 -3300 -3300 -3300 -3300 -3300 -3300 -3300 -3300 -3300 -3300 -3300 -3300 -3300 -3300 -3300 -3300 -3300 -3300 -3300 -3300 -3300 -3300 -3300 -3300 -3300 -3300 -3300 -3300 -3300 -3300 -3300 -3300 -3300 -3300 -3300 -3300 -3300 -3300 -3300 -3300 -3300 -3300 -3300 -3300 -3300 -3300 -3300 -3300 -3300 -3300 -3300 -3300 -3300 -3300 -3300 -3300 -3300 -3300 -3300 -3300 -3300 -3300 -3300 -3300 -3300 -3300 -3300 -3300 -3300 -3300 -3300 -3300 -3300 -3300 -3300 -3300 -3300 -3300 -3300 -3300 -3300 -3300 -3300 -3300 -3300 -3300 -3300 -3300 -3300 -3300 -3300 -3300 -3300 -3300 -3300 -3300 -3300 -3300 -3300 -3300 -3300 -3300 -3300 -3300 -3300 -3300 -3300 -3300 -3300 -3300 -3300 -3300 -3300 -3300 -3300 -3300 -3300 -3300 -3300 
-2799.6826 -2713.8794 -2683.969 -2743.2861 -2736.8408 -2745.7031 -2769.873 -2497.055 -2006.9092 -1729.1565 -1716.0645 -1575.8789 -1049.881 -279.364 549.4629 1321.8933 2186.1694 2965.75 3299.8992 3299.8992 3299.8992 3299.8992 3299.8992 3299.8992 3299.8992 3299.8992 3299.8992 3299.8992 3299.8992 3299.8992 3299.8992 3299.8992 3299.8992 3299.8992 3299.8992 3299.8992 3299.8992 3299.8992 3299.8992 3288.217 3274.7222 3261.4287 3247.9338 3234.439 3217.4194 2742.279 2102.8838 1851.6174 1657.251 1329.7485 691.9647 280.4718 326.39465 714.82544 1115.744 1515.8569 2170.459 2880.8533 3130.6091 3119.5312 3107.6477 3095.5627 3083.9812 3072.0977 3060.315 3048.7334 3036.9507 3024.9663 3013.687 3002.4077 2991.1284 2979.95 2968.5698 2957.2905 2945.9106 2934.732 2923.4526 2912.0728 2897.47 2592.7275 1900.8636 1111.1115 176.74255 -1101.1414 -2469.8638 2901.599 2917.4102 2933.5234 2948.932 2964.2395 2979.3457 2994.351 3009.1553 3023.9592 3038.6626 3053.1646 3067.465 3083.377 -2831.4055 -1983.847 -1280.603 -526.6022 429.82178 1870.2484 3093.3472 3081.3628 3069.1772 3055.8838 3043.698 3031.311 3019.1252 3006.8389 2994.452 2982.266 2969.7783 2957.3914 2936.6455 1986.6669 689.0442 -516.22925 
-3300 -3300 -3300 -3300 -3300 -3300 -3300 -3300 -3300 -3300 -3300 -3300 -3300 -3300 -3300 -3300 -3300 -3300 -3300 -3300 -3300 -3300 -3300 -3300 -3300 -3300 -3300 -3300 -3300 -3300 -3300 -3300 -3300 -3300 -3300 -3300 -3300 -3300 -3300 -3300 -3300 -3300 -3300 -3300 -3300 -3300 -3300 -3300 -3300 -3300 -3300 -3300 -3300 -3300 -3300 -3300 -3300 -3300 -3300 -3300 -3300 -3300 -3300 -3300 -3300 -3300 -3300 -3300 -3300 -3300 -3300 -3300 -3300 -3300 -3300 -3300 -3300 -3300 -3300 -3300 -3300 -3300 -3300 -3300 -3300 -3300 -3300 -3300 -3300 -3300 -3300 -3300 -3300 -3300 -3300 -3300 -3300 -3300 -3300 -3300 -3300 -3300 -3300 -3300 -3300 -3300 -3300 -3300 -3300 -3300 -3300 -3300 -3300 -3300 -3300 -3300 -3300 -3300 -3300 -3300 
-3300 -3300 -3300 -3300 -3300 -3300 -3300 -3300 -3300 -3300 -3300 -3300 -3300 -3300 -3300 -3300 -3300 -3300 -3300 -3300 -3300 -3300 -3300 -3300 -3300 -3300 -3300 -3300 -3300 -3300 -3300 -3300 -3300 -3300 -3300 -3300 -3300 -3300 -3300 -3300 -3300 -3300 -3300 -3300 -3300 -3300 -3300 -3300 -3300 -3300 -3300 -3300 -3300 -3300 -3300 -3300 -3300 -3300 -3300 -3300 -3300 -3300 -3300 -3300 -3300 -3300 -3300 -3300 -3300 -3300 -3300 -3300 -3300 -3300 -3300 -3300 -3300 -3300 -3300 -3300 -3300 -3300 -3300 -3300 -3300 -3300 -3300 -3300 -3300 -3300 -3300 -3300 -3300 -3300 -3300 -3300 -3300 -3300 -3300 -3300 -3300 -3300 -3300 -3300 -3300 -3300 -3300 -3300 -3300 -3300 -3300 -3300 -3300 -3300 -3300 -3300 -3300 -3300 -3300 -3300 
-3300 -3300 -3300 -3300 -3300 -3300 -3300 -3300 -3300 -3300 -3300 -3300 -3300 -3300 -3300 -3300 -3300 -3300 -3300 -3300 -3300 -3300 -3300 -3300 -3300 -3300 -3300 -3300 -3300 -3300 -3300 -3300 -3300 -3300 -3300 -3300 -3300 -3300 -3300 -3300 -3300 -3300 -3300 -3300 -3300 -3300 -3300 -3300 -3300 -3300 -3300 -3300 -3300 -3300 -3300 -3300 -3300 -3300 -3300 -3300 -3300 -3300 -3300 -3300 -3300 -3300 -3300 -3300 -3300 -3300 -3300 -3300 -3300 -3300 -3300 -3300 -3300 -3300 -3300 -3300 -3300 -3300 -3300 -3300 -3300 -3300 -3300 -3300 -3300 -3300 -3300 -3300 -3300 -3300 -3300 -3300 -3300 -3300 -3300 -3300 -3300 -3300 -3300 -3300 -3300 -3300 -3300 -3300 -3300 -3300 -3300 -3300 -3300 -3300 -3300 -3300 -3300 -3300 -3300 -3300 

-3300 -3300 -3300 -3300 -3300 -3300 -3300 -3300 -3300 -3300 -3300 -3300 -3300 -3300 -3300 -3300 -3300 -3300 -3300 -3300 -3300 -3300 -3300 -3300 -3300 -3300 -3300 -3300 -3300 -3300 -3300 -3300 -3300 -3300 -3300 -3300 -3300 -3300 -3300 -3300 -3300 -3300 -3300 -3300 -3300 -3300 -3300 -3300 -3300 -3300 -3300 -3300 -3300 -3300 -3300 -3300 -3300 -3300 -3300 -3300 -3300 -3300 -3300 -3300 -3300 -3300 -3300 -3300 -3300 -3300 -3300 -3300 -3300 -3300 -3300 -3300 -3300 -3300 -3300 -3300 -3300 -3300 -3300 -3300 -3300 -3300 -3300 -3300 -3300 -3300 -3300 -3300 -3300 -3300 -3300 -3300 -3300 -3300 -3300 -3300 
-3300 -3300 -3300 -3300 -3300 -3300 -3300 -3300 -3300 -3300 -3300 -3300 -3300 -3300 -3300 -3300 -3300 -3300 -3300 -3300 -3300 -3300 -3300 -3300 -3300 -3300 -3300 -3300 -3300 -3300 -3300 -3300 -3300 -3300 -3300 -3300 -3300 -3300 -3300 -3300 -3300 -3300 -3300 -3300 -3300 -3300 -3300 -3300 -3300 -3300 -3300 -3300 -3300 -3300 -3300 -3300 -3300 -3300 -3300 -3300 -3300 -3300 -3300 -3300 -3300 -3300 -3300 -3300 -3300 -3300 -3300 -3300 -3300 -3300 -3300 -3300 -3300 -3300 -3300 -3300 -3300 -3300 -3300 -3300 -3300 -3300 -3300 -3300 -3300 -3300 -3300 -3300 -3300 -3300 -3300 -3300 -3300 -3300 -3300 -3300 
-3300 -3300 -3300 -3300 -3300 -3300 -3300 -3300 -3300 -3300 -3300 -3300 -3300 -3300 -3300 -3300 -3300 -3300 -3300 -3300 -3300 -3300 -3300 -3300 -3300 -3300 -3300 -3300 -3300 -3300 -3300 -3300 -3300 -3300 -3300 -3300 -3300 -3300 -3300 -3300 -3300 -3300 -3300 -3300 -3300 -3300 -3300 -3300 -3300 -3300 -3300 -3300 -3300 -3300 -3300 -3300 -3300 -3300 -3300 -3300 -3300 -3300 -3300 -3300 -3300 -3300 -3300 -3300 -3300 -3300 -3300 -3300 -3300 -3300 -3300 -3300 -3300 -3300 -3300 -3300 -3300 -3300 -3300 -3300 -3300 -3300 -3300 -3300 -3300 -3300 -3300 -3300 -3300 -3300 -3300 -3300 -3300 -3300 -3300 -3300 
-3300 -3300 -3300 -3300 -3300 -3300 -3300 -3300 -3300 -3300 -3300 -3300 -3300 -3300 -3300 -3300 -3300 -3300 -3300 -3300 -3300 -3300 -3300 -3300 -3300 -3300 -3300 -3300 -3300 -3300 -3300 -3300 -3300 -3300 -3300 -3300 -3300 -3300 -3300 -3300 -3300 -3300 -3300 -3300 -3300 -3300 -3300 -3300 -3300 -3300 -3300 -3300 -3300 -3300 -3300 -3300 -3300 -3300 -3300 -3300 -3300 -3300 -3300 -3300 -3300 -3300 -3300 -3300 -3300 -3300 -3300 -3300 -3300 -3300 -3300 -3300 -3300 -3300 -3300 -3300 -3300 -3300 -3300 -3300 -3300 -3300 -3300 -3300 -3300 -3300 -3300 -3300 -3300 -3300 -3300 -3300 -3300 -3300 -3300 -3300 
-1478.0914 -2479.7332 2972.3967 2973.2024 2988.6108 3003.8176 3018.6218 3033.9294 3048.6328 3063.3362 3077.9387 3092.34 3106.842 3120.9412 3135.1409 3149.1394 3163.037 3176.9348 3190.631 -2940.9758 -1939.3341 -777.4658 643.7256 2633.2122 3193.8538 3181.0637 3168.173 3154.2754 3141.4856 3128.6956 3115.805 3103.0151 3090.1245 3077.234 3064.3433 3051.3518 3038.2598 3023.355 2586.9873 1388.7634 353.3844 -738.089 -1976.1932 3023.9592 3039.4683 3054.776 3069.983 3084.8877 3099.1882 3114.093 3128.595 3143.097 3157.3975 3171.5972 3185.5957 3199.594 -2333.606 -163.14697 2003.6865 3196.3713 3183.2793 3169.9858 3157.196 3144.406 3131.6162 3119.0276 3106.137 3092.8435 3080.4565 3068.0693 3055.5815 3043.1946 3030.7068 3018.219 3005.8318 2993.5454 2981.259 2969.0735 2956.8877 2944.7021 2932.7178 2921.0356 2908.85 2756.1768 916.04004 -2217.389 2911.0657 2927.0781 2942.7886 2958.2976 2973.8066 2988.9128 3003.8176 3018.7224 3033.5266 3048.23 3062.8325 3077.234 3091.5344 3105.835 
-3300 -3300 -3300 -3300 -3300 -3300 -3300 -3300 -3300 -3300 -3300 -3300 -3300 -3300 -3300 -3300 -3300 -3300 -3300 -3300 -3300 -3300 -3300 -3300 -3300 -3300 -3300 -3300 -3300 -3300 -3300 -3300 -3300 -3300 -3300 -3300 -3300 -3300 -3300 -3300 -3300 -3300 -3300 -3300 -3300 -3300 -3300 -3300 -3300 -3300 -3300 -3300 -3300 -3300 -3300 -3300 -3300 -3300 -3300 -3300 -3300 -3300 -3300 -3300 -3300 -3300 -3300 -3300 -3300 -3300 -3300 -3300 -3300 -3300 -3300 -3300 -3300 -3300 -3300 -3300 -3300 -3300 -3300 -3300 -3300 -3300 -3300 -3300 -3300 -3300 -3300 -3300 -3300 -3300 -3300 -3300 -3300 -3300 -3300 -3300 
-3300 -3300 -3300 -3300 -3300 -3300 -3300 -3300 -3300 -3300 -3300 -3300 -3300 -3300 -3300 -3300 -3300 -3300 -3300 -3300 -3300 -3300 -3300 -3300 -3300 -3300 -3300 -3300 -3300 -3300 -3300 -3300 -3300 -3300 -3300 -3300 -3300 -3300 -3300 -3300 -3300 -3300 -3300 -3300 -3300 -3300 -3300 -3300 -3300 -3300 -3300 -3300 -3300 -3300 -3300 -3300 -3300 -3300 -3300 -3300 -3300 -3300 -3300 -3300 -3300 -3300 -3300 -3300 -3300 -3300 -3300 -3300 -3300 -3300 -3300 -3300 -3300 -3300 -3300 -3300 -3300 -3300 -3300 -3300 -3300 -3300 -3300 -3300 -3300 -3300 -3300 -3300 -3300 -3300 -3300 -3300 -3300 -3300 -3300 -3300 
-3300 -3300 -3300 -3300 -3300 -3300 -3300 -3300 -3300 -3300 -3300 -3300 -3300 -3300 -3300 -3300 -3300 -3300 -3300 -3300 -3300 -3300 -3300 -3300 -3300 -3300 -3300 -3300 -3300 -3300 -3300 -3300 -3300 -3300 -3300 -3300 -3300 -3300 -3300 -3300 -3300 -3300 -3300 -3300 -3300 -3300 -3300 -3300 -3300 -3300 -3300 -3300 -3300 -3300 -3300 -3300 -3300 -3300 -3300 -3300 -3300 -3300 -3300 -3300 -3300 -3300 -3300 -3300 -3300 -3300 -3300 -3300 -3300 -3300 -3300 -3300 -3300 -3300 -3300 -3300 -3300 -3300 -3300 -3300 -3300 -3300 -3300 -3300 -3300 -3300 -3300 -3300 -3300 -3300 -3300 -3300 -3300 -3300 -3300 -3300 

-3300 -3300 -3300 -3300 -3300 -3300 -3300 -3300 -3300 -3300 -3300 -3300 -3300 -3300 -3300 -3300 -3300 -3300 -3300 -3300 -3300 -3300 -3300 -3300 -3300 -3300 -3300 -3300 -3300 -3300 -3300 -3300 -3300 -3300 -3300 -3300 -3300 -3300 -3300 -3300 -3300 -3300 -3300 -3300 -3300 -3300 -3300 -3300 -3300 -3300 -3300 -3300 -3300 -3300 -3300 -3300 -3300 -3300 -3300 -3300 -3300 -3300 -3300 -3300 -3300 -3300 -3300 -3300 -3300 -3300 -3300 -3300 -3300 -3300 -3300 -3300 -3300 -3300 -3300 -3300 -3300 -3300 -3300 -3300 -3300 -3300 -3300 -3300 -3300 -3300 -3300 -3300 -3300 -3300 -3300 -3300 -3300 -3300 -3300 -3300 
-3300 -3300 -3300 -3300 -3300 -3300 -3300 -3300 -3300 -3300 -3300 -3300 -3300 -3300 -3300 -3300 -3300 -3300 -3300 -3300 -3300 -3300 -3300 -3300 -3300 -3300 -3300 -3300 -3300 -3300 -3300 -3300 -3300 -3300 -3300 -3300 -3300 -3300 -3300 -3300 -3300 -3300 -3300 -3300 -3300 -3300 -3300 -3300 -3300 -3300 -3300 -3300 -3300 -3300 -3300 -3300 -3300 -3300 -3300 -3300 -3300 -3300 -3300 -3300 -3300 -3300 -3300 -3300 -3300 -3300 -3300 -3300 -3300 -3300 -3300 -3300 -3300 -3300 -3300 -3300 -3300 -3300 -3300 -3300 -3300 -3300 -3300 -3300 -3300 -3300 -3300 -3300 -3300 -3300 -3300 -3300 -3300 -3300 -3300 -3300 
-3300 -3300 -3300 -3300 -3300 -3300 -3300 -3300 -3300 -3300 -3300 -3300 -3300 -3300 -3300 -3300 -3300 -3300 -3300 -3300 -3300 -3300 -3300 -3300 -3300 -3300 -3300 -3300 -3300 -3300 -3300 -3300 -3300 -3300 -3300 -3300 -3300 -3300 -3300 -3300 -3300 -3300 -3300 -3300 -3300 -3300 -3300 -3300 -3300 -3300 -3300 -3300 -3300 -3300 -3300 -3300 -3300 -3300 -3300 -3300 -3300 -3300 -3300 -3300 -3300 -3300 -3300 -3300 -3300 -3300 -3300 -3300 -3300 -3300 -3300 -3300 -3300 -3300 -3300 -3300 -3300 -3300 -3300 -3300 -3300 -3300 -3300 -3300 -3300 -3300 -3300 -3300 -3300 -3300 -3300 -3300 -3300 -3300 -3300 -3300 
-3300 -3300 -3300 -3300 -3300 -3300 -3300 -3300 -3300 -3300 -3300 -3300 -3300 -3300 -3300 -3300 -3300 -3300 -3300 -3300 -3300 -3300 -3300 -3300 -3300 -3300 -3300 -3300 -3300 -3300 -3300 -3300 -3300 -3300 -3300 -3300 -3300 -3300 -3300 -3300 -3300 -3300 -3300 -3300 -3300 -3300 -3300 -3300 -3300 -3300 -3300 -3300 -3300 -3300 -3300 -3300 -3300 -3300 -3300 -3300 -3300 -3300 -3300 -3300 -3300 -3300 -3300 -3300 -3300 -3300 -3300 -3300 -3300 -3300 -3300 -3300 -3300 -3300 -3300 -3300 -3300 -3300 -3300 -3300 -3300 -3300 -3300 -3300 -3300 -3300 -3300 -3300 -3300 -3300 -3300 -3300 -3300 -3300 -3300 -3300 
3120.1355 -3064.1418 -1926.5442 205.94788 2326.7578 3124.1638 3111.4746 3097.9797 3085.492 3072.9033 3060.4155 3047.8271 3035.138 3022.1465 2977.1301 1404.1718 -1242.2333 3012.4785 3028.0884 3043.5974 3058.8042 3074.0112 3088.6138 3103.3171 3117.92 3132.5225 3147.0244 3161.2244 3175.0212 3188.919 3202.8167 3216.4124 3230.0078 3243.6035 3256.9976 3270.3918 3283.6853 3296.878 -3289.9292 -3276.9377 -3263.9465 -3066.7603 -1303.6652 1715.1581 3299.8992 3299.8992 3299.8992 3297.9858 3284.491 3270.8953 3257.2998 3243.704 3230.0078 3216.3115 3202.5146 3188.919 3175.2227 3161.5264 3146.7224 2868.466 2012.3474 803.5492 -803.952 -3232.6262 3146.0173 3161.023 3175.525 3190.5303 3204.8308 3219.2322 3233.5327 3247.6318 3261.731 3275.6287 3289.5264 3299.8992 -2252.4353 51.461792 2421.4233 3296.576 3282.9802 3269.5862 3255.789 3242.4956 3229.303 3216.0095 3202.9175 3189.0198 3176.0283 3163.037 3150.0457 3137.155 3124.1638 3111.0718 3098.0803 3085.2905 3072.299 3059.5093 3046.7192 3034.1309 
-3300 -3300 -3300 -3300 -3300 -3300 -3300 -3300 -3300 -3300 -3300 -3300 -3300 -3300 -3300 -3300 -3300 -3300 -3300 -3300 -3300 -3300 -3300 -3300 -3300 -3300 -3300 -3300 -3300 -3300 -3300 -3300 -3300 -3300 -3300 -3300 -3300 -3300 -3300 -3300 -3300 -3300 -3300 -3300 -3300 -3300 -3300 -3300 -3300 -3300 -3300 -3300 -3300 -3300 -3300 -3300 -3300 -3300 -3300 -3300 -3300 -3300 -3300 -3300 -3300 -3300 -3300 -3300 -3300 -3300 -3300 -3300 -3300 -3300 -3300 -3300 -3300 -3300 -3300 -3300 -3300 -3300 -3300 -3300 -3300 -3300 -3300 -3300 -3300 -3300 -3300 -3300 -3300 -3300 -3300 -3300 -3300 -3300 -3300 -3300 
-3300 -3300 -3300 -3300 -3300 -3300 -3300 -3300 -3300 -3300 -3300 -3300 -3300 -3300 -3300 -3300 -3300 -3300 -3300 -3300 -3300 -3300 -3300 -3300 -3300 -3300 -3300 -3300 -3300 -3300 -3300 -3300 -3300 -3300 -3300 -3300 -3300 -3300 -3300 -3300 -3300 -3300 -3300 -3300 -3300 -3300 -3300 -3300 -3300 -3300 -3300 -3300 -3300 -3300 -3300 -3300 -3300 -3300 -3300 -3300 -3300 -3300 -3300 -3300 -3300 -3300 -3300 -3300 -3300 -3300 -3300 -3300 -3300 -3300 -3300 -3300 -3300 -3300 -3300 -3300 -3300 -3300 -3300 -3300 -3300 -3300 -3300 -3300 -3300 -3300 -3300 -3300 -3300 -3300 -3300 -3300 -3300 -3300 -3300 -3300 
-3300 -3300 -3300 -3300 -3300 -3300 -3300 -3300 -3300 -3300 -3300 -3300 -3300 -3300 -3300 -3300 -3300 -3300 -3300 -3300 -3300 -3300 -3300 -3300 -3300 -3300 -3300 -3300 -3300 -3300 -3300 -3300 -3300 -3300 -3300 -3300 -3300 -3300 -3300 -3300 -3300 -3300 -3300 -3300 -3300 -3300 -3300 -3300 -3300 -3300 -3300 -3300 -3300 -3300 -3300 -3300 -3300 -3300 -3300 -3300 -3300 -3300 -3300 -3300 -3300 -3300 -3300 -3300 -3300 -3300 -3300 -3300 -3300 -3300 -3300 -3300 -3300 -3300 -3300 -3300 -3300 -3300 -3300 -3300 -3300 -3300 -3300 -3300 -3300 -3300 -3300 -3300 -3300 -3300 -3300 -3300 -3300 -3300 -3300 -3300 

-3300 -3300 -3300 -3300 -3300 -3300 -3300 -3300 -3300 -3300 -3300 -3300 -3300 -3300 -3300 -3300 -3300 -3300 -3300 -3300 -3300 -3300 -3300 -3300 -3300 -3300 -3300 -3300 -3300 -3300 -3300 -3300 -3300 -3300 -3300 -3300 -3300 -3300 -3300 -3300 -3300 -3300 -3300 -3300 -3300 -3300 -3300 -3300 -3300 -3300 -3300 -3300 -3300 -3300 -3300 -3300 -3300 -3300 -3300 -3300 -3300 -3300 -3300 -3300 -3300 -3300 -3300 -3300 -3300 -3300 -3300 -3300 -3300 -3300 -3300 -3300 -3300 -3300 -3300 -3300 -3300 -3300 -3300 -3300 -3300 -3300 -3300 -3300 -3300 -3300 -3300 -3300 -3300 -3300 -3300 -3300 -3300 -3300 -3300 -3300 
-3300 -3300 -3300 -3300 -3300 -3300 -3300 -3300 -3300 -3300 -3300 -3300 -3300 -3300 -3300 -3300 -3300 -3300 -3300 -3300 -3300 -3300 -3300 -3300 -3300 -3300 -3300 -3300 -3300 -3300 -3300 -3300 -3300 -3300 -3300 -3300 -3300 -3300 -3300 -3300 -3300 -3300 -3300 -3300 -3300 -3300 -3300 -3300 -3300 -3300 -3300 -3300 -3300 -3300 -3300 -3300 -3300 -3300 -3300 -3300 -3300 -3300 -3300 -3300 -3300 -3300 -3300 -3300 -3300 -3300 -3300 -3300 -3300 -3300 -3300 -3300 -3300 -3300 -3300 -3300 -3300 -3300 -3300 -3300 -3300 -3300 -3300 -3300 -3300 -3300 -3300 -3300 -3300 -3300 -3300 -3300 -3300 -3300 -3300 -3300 
-3300 -3300 -3300 -3300 -3300 -3300 -3300 -3300 -3300 -3300 -3300 -3300 -3300 -3300 -3300 -3300 -3300 -3300 -3300 -3300 -3300 -3300 -3300 -3300 -3300 -3300 -3300 -3300 -3300 -3300 -3300 -3300 -3300 -3300 -3300 -3300 -3300 -3300 -3300 -3300 -3300 -3300 -3300 -3300 -3300 -3300 -3300 -3300 -3300 -3300 -3300 -3300 -3300 -3300 -3300 -3300 -3300 -3300 -3300 -3300 -3300 -3300 -3300 -3300 -3300 -3300 -3300 -3300 -3300 -3300 -3300 -3300 -3300 -3300 -3300 -3300 -3300 -3300 -3300 -3300 -3300 -3300 -3300 -3300 -3300 -3300 -3300 -3300 -3300 -3300 -3300 -3300 -3300 -3300 -3300 -3300 -3300 -3300 -3300 -3300 
-3300 -3300 -3300 -3300 -3300 -3300 -3300 -3300 -3300 -3300 -3300 -3300 -3300 -3300 -3300 -3300 -3300 -3300 -3300 -3300 -3300 -3300 -3300 -3300 -3300 -3300 -3300 -3300 -3300 -3300 -3300 -3300 -3300 -3300 -3300 -3300 -3300 -3300 -3300 -3300 -3300 -3300 -3300 -3300 -3300 -3300 -3300 -3300 -3300 -3300 -3300 -3300 -3300 -3300 -3300 -3300 -3300 -3300 -3300 -3300 -3300 -3300 -3300 -3300 -3300 -3300 -3300 -3300 -3300 -3300 -3300 -3300 -3300 -3300 -3300 -3300 -3300 -3300 -3300 -3300 -3300 -3300 -3300 -3300 -3300 -3300 -3300 -3300 -3300 -3300 -3300 -3300 -3300 -3300 -3300 -3300 -3300 -3300 -3300 -3300 
3021.3408 2317.694 173.01636 -3050.7476 3030.4045 3046.0144 3061.0198 3076.4282 3091.2322 3106.0364 3120.639 3135.2417 3149.6428 3164.0442 3178.244 3192.343 3206.4421 3220.3398 3266.0613 -2109.027 -733.3557 1083.0139 3235.6475 3222.6562 3209.8662 3196.875 3183.5815 3169.8853 3156.8938 3143.9026 3131.012 3117.819 3104.2236 3090.5273 3073.6084 2220.4102 334.75342 -1739.6301 3077.9387 3093.2463 3108.3525 3123.5596 3138.162 3152.8655 3167.3674 3181.7688 3196.2708 3210.4705 3224.469 3238.568 3252.365 3266.2627 3279.8584 3293.5547 -3293.051 -3279.657 -3266.3635 -3253.1707 -3239.978 -3227.0874 -3214.096 -3201.6082 -3188.7175 -1055.6213 2310.9465 3299.8992 3299.8992 3299.8992 3299.8992 3299.8992 3299.8992 3299.8992 3299.8992 3286.908 3272.708 3258.307 2994.754 1201.5472 -846.7529 -2560.4004 3258.206 3273.1108 3287.3108 3299.8992 -3284.3901 -3270.3918 -3256.3933 -3242.697 -3229.2021 -3215.6067 -3202.4138 -3189.1204 -3176.1292 -3163.1377 -3150.5493 -3138.0615 -3125.5737 -2952.0537 -1137.2955 942.42554 
-3300 -3300 -3300 -3300 -3300 -3300 -3300 -3300 -3300 -3300 -3300 -3300 -3300 -3300 -3300 -3300 -3300 -3300 -3300 -3300 -3300 -3300 -3300 -3300 -3300 -3300 -3300 -3300 -3300 -3300 -3300 -3300 -3300 -3300 -3300 -3300 -3300 -3300 -3300 -3300 -3300 -3300 -3300 -3300 -3300 -3300 -3300 -3300 -3300 -3300 -3300 -3300 -3300 -3300 -3300 -3300 -3300 -3300 -3300 -3300 -3300 -3300 -3300 -3300 -3300 -3300 -3300 -3300 -3300 -3300 -3300 -3300 -3300 -3300 -3300 -3300 -3300 -3300 -3300 -3300 -3300 -3300 -3300 -3300 -3300 -3300 -3300 -3300 -3300 -3300 -3300 -3300 -3300 -3300 -3300 -3300 -3300 -3300 -3300 -3300 
-3300 -3300 -3300 -3300 -3300 -3300 -3300 -3300 -3300 -3300 -3300 -3300 -3300 -3300 -3300 -3300 -3300 -3300 -3300 -3300 -3300 -3300 -3300 -3300 -3300 -3300 -3300 -3300 -3300 -3300 -3300 -3300 -3300 -3300 -3300 -3300 -3300 -3300 -3300 -3300 -3300 -3300 -3300 -3300 -3300 -3300 -3300 -3300 -3300 -3300 -3300 -3300 -3300 -3300 -3300 -3300 -3300 -3300 -3300 -3300 -3300 -3300 -3300 -3300 -3300 -3300 -3300 -3300 -3300 -3300 -3300 -3300 -3300 -3300 -3300 -3300 -3300 -3300 -3300 -3300 -3300 -3300 -3300 -3300 -3300 -3300 -3300 -3300 -3300 -3300 -3300 -3300 -3300 -3300 -3300 -3300 -3300 -3300 -3300 -3300 
-3300 -3300 -3300 -3300 -3300 -3300 -3300 -3300 -3300 -3300 -3300 -3300 -3300 -3300 -3300 -3300 -3300 -3300 -3300 -3300 -3300 -3300 -3300 -3300 -3300 -3300 -3300 -3300 -3300 -3300 -3300 -3300 -3300 -3300 -3300 -3300 -3300 -3300 -3300 -3300 -3300 -3300 -3300 -3300 -3300 -3300 -3300 -3300 -3300 -3300 -3300 -3300 -3300 -3300 -3300 -3300 -3300 -3300 -3300 -3300 -3300 -3300 -3300 -3300 -3300 -3300 -3300 -3300 -3300 -3300 -3300 -3300 -3300 -3300 -3300 -3300 -3300 -3300 -3300 -3300 -3300 -3300 -3300 -3300 -3300 -3300 -3300 -3300 -3300 -3300 -3300 -3300 -3300 -3300 -3300 -3300 -3300 -3300 -3300 -3300 

-3300 -3300 -3300 -3300 -3300 -3300 -3300 -3300 -3300 -3300 -3300 -3300 -3300 -3300 -3300 -3300 -3300 -3300 -3300 -3300 -3300 -3300 -3300 -3300 -3300 -3300 -3300 -3300 -3300 -3300 -3300 -3300 -3300 -3300 -3300 -3300 -3300 -3300 -3300 -3300 -3300 -3300 -3300 -3300 -3300 -3300 -3300 -3300 -3300 -3300 -3300 -3300 -3300 -3300 -3300 -3300 -3300 -3300 -3300 -3300 -3300 -3300 -3300 -3300 -3300 -3300 -3300 -3300 -3300 -3300 -3300 -3300 -3300 -3300 -3300 -3300 -3300 -3300 -3300 -3300 -3300 -3300 -3300 -3300 -3300 -3300 -3300 -3300 -3300 -3300 -3300 -3300 -3300 -3300 -3300 -3300 -3300 -3300 -3300 -3300 
-3300 -3300 -3300 -3300 -3300 -3300 -3300 -3300 -3300 -3300 -3300 -3300 -3300 -3300 -3300 -3300 -3300 -3300 -3300 -3300 -3300 -3300 -3300 -3300 -3300 -3300 -3300 -3300 -3300 -3300 -3300 -3300 -3300 -3300 -3300 -3300 -3300 -3300 -3300 -3300 -3300 -3300 -3300 -3300 -3300 -3300 -3300 -3300 -3300 -3300 -3300 -3300 -3300 -3300 -3300 -3300 -3300 -3300 -3300 -3300 -3300 -3300 -3300 -3300 -3300 -3300 -3300 -3300 -3300 -3300 -3300 -3300 -3300 -3300 -3300 -3300 -3300 -3300 -3300 -3300 -3300 -3300 -3300 -3300 -3300 -3300 -3300 -3300 -3300 -3300 -3300 -3300 -3300 -3300 -3300 -3300 -3300 -3300 -3300 -3300 
-3300 -3300 -3300 -3300 -3300 -3300 -3300 -3300 -3300 -3300 -3300 -3300 -3300 -3300 -3300 -3300 -3300 -3300 -3300 -3300 -3300 -3300 -3300 -3300 -3300 -3300 -3300 -3300 -3300 -3300 -3300 -3300 -3300 -3300 -3300 -3300 -3300 -3300 -3300 -3300 -3300 -3300 -3300 -3300 -3300 -3300 -3300 -3300 -3300 -3300 -3300 -3300 -3300 -3300 -3300 -3300 -3300 -3300 -3300 -3300 -3300 -3300 -3300 -3300 -3300 -3300 -3300 -3300 -3300 -3300 -3300 -3300 -3300 -3300 -3300 -3300 -3300 -3300 -3300 -3300 -3300 -3300 -3300 -3300 -3300 -3300 -3300 -3300 -3300 -3300 -3300 -3300 -3300 -3300 -3300 -3300 -3300 -3300 -3300 -3300 
-3300 -3300 -3300 -3300 -3300 -3300 -3300 -3300 -3300 -3300 -3300 -3300 -3300 -3300 -3300 -3300 -3300 -3300 -3300 -3300 -3300 -3300 -3300 -3300 -3300 -3300 -3300 -3300 -3300 -3300 -3300 -3300 -3300 -3300 -3300 -3300 -3300 -3300 -3300 -3300 -3300 -3300 -3300 -3300 -3300 -3300 -3300 -3300 -3300 -3300 -3300 -3300 -3300 -3300 -3300 -3300 -3300 -3300 -3300 -3300 -3300 -3300 -3300 -3300 -3300 -3300 -3300 -3300 -3300 -3300 -3300 -3300 -3300 -3300 -3300 -3300 -3300 -3300 -3300 -3300 -3300 -3300 -3300 -3300 -3300 -3300 -3300 -3300 -3300 -3300 -3300 -3300 -3300 -3300 -3300 -3300 -3300 -3300 -3300 -3300 
2508.5356 3299.8992 3299.8992 3299.8992 3299.8992 3299.8992 3299.8992 3299.8992 3299.8992 3299.8992 3299.8992 3299.8992 3299.8992 3299.3958 3285.1958 3271.0967 3256.897 3242.8984 3225.476 2312.155 840.0055 -1385.4401 3226.4832 3241.4885 3256.192 3270.6938 3284.793 3299.295 -3286.8071 -3272.8088 -3259.0117 -3245.3154 -3231.6191 -3218.225 -3204.8308 -3191.5374 -3178.4453 -3163.44 -1734.2926 239.08081 1859.372 3299.8992 3299.8992 3299.8992 3299.8992 3299.8992 3299.8992 3299.8992 3299.8992 3299.8992 3299.8992 3287.1094 3273.3123 3259.2131 3245.3154 3231.2163 3217.1172 3202.9175 2491.818 549.765 -1197.4182 3198.9897 3214.4988 3229.1016 3243.805 3258.307 3272.3052 3286.7065 3299.8992 -3285.1958 -3271.399 -3257.7026 -3244.107 -3230.5115 -3217.1172 -3203.7231 -3190.631 -3177.4382 -2588.6992 -838.5956 741.31165 2934.8328 3299.8992 3299.8992 3299.8992 3299.8992 3299.8992 3299.8992 3299.8992 3299.8992 3299.8992 3289.8284 3275.7292 3261.6301 3247.4304 3233.3313 3215.7073 1832.785 -469.80286 -2658.3892 
-3300 -3300 -3300 -3300 -3300 -3300 -3300 -3300 -3300 -3300 -3300 -3300 -3300 -3300 -3300 -3300 -3300 -3300 -3300 -3300 -3300 -3300 -3300 -3300 -3300 -3300 -3300 -3300 -3300 -3300 -3300 -3300 -3300 -3300 -3300 -3300 -3300 -3300 -3300 -3300 -3300 -3300 -3300 -3300 -3300 -3300 -3300 -3300 -3300 -3300 -3300 -3300 -3300 -3300 -3300 -3300 -3300 -3300 -3300 -3300 -3300 -3300 -3300 -3300 -3300 -3300 -3300 -3300 -3300 -3300 -3300 -3300 -3300 -3300 -3300 -3300 -3300 -3300 -3300 -3300 -3300 -3300 -3300 -3300 -3300 -3300 -3300 -3300 -3300 -3300 -3300 -3300 -3300 -3300 -3300 -3300 -3300 -3300 -3300 -3300 
-3300 -3300 -3300 -3300 -3300 -3300 -3300 -3300 -3300 -3300 -3300 -3300 -3300 -3300 -3300 -3300 -3300 -3300 -3300 -3300 -3300 -3300 -3300 -3300 -3300 -3300 -3300 -3300 -3300 -3300 -3300 -3300 -3300 -3300 -3300 -3300 -3300 -3300 -3300 -3300 -3300 -3300 -3300 -3300 -3300 -3300 -3300 -3300 -3300 -3300 -3300 -3300 -3300 -3300 -3300 -3300 -3300 -3300 -3300 -3300 -3300 -3300 -3300 -3300 -3300 -3300 -3300 -3300 -3300 -3300 -3300 -3300 -3300 -3300 -3300 -3300 -3300 -3300 -3300 -3300 -3300 -3300 -3300 -3300 -3300 -3300 -3300 -3300 -3300 -3300 -3300 -3300 -3300 -3300 -3300 -3300 -3300 -3300 -3300 -3300 
-3300 -3300 -3300 -3300 -3300 -3300 -3300 -3300 -3300 -3300 -3300 -3300 -3300 -3300 -3300 -3300 -3300 -3300 -3300 -3300 -3300 -3300 -3300 -3300 -3300 -3300 -3300 -3300 -3300 -3300 -3300 -3300 -3300 -3300 -3300 -3300 -3300 -3300 -3300 -3300 -3300 -3300 -3300 -3300 -3300 -3300 -3300 -3300 -3300 -3300 -3300 -3300 -3300 -3300 -3300 -3300 -3300 -3300 -3300 -3300 -3300 -3300 -3300 -3300 -3300 -3300 -3300 -3300 -3300 -3300 -3300 -3300 -3300 -3300 -3300 -3300 -3300 -3300 -3300 -3300 -3300 -3300 -3300 -3300 -3300 -3300 -3300 -3300 -3300 -3300 -3300 -3300 -3300 -3300 -3300 -3300 -3300 -3300 -3300 -3300 

-3300 -3300 -3300 -3300 -3300 -3300 -3300 -3300 -3300 -3300 -3300 -3300 -3300 -3300 -3300 -3300 -3300 -3300 -3300 -3300 -3300 -3300 -3300 -3300 -3300 -3300 -3300 -3300 -3300 -3300 -3300 -3300 -3300 -3300 -3300 -3300 -3300 -3300 -3300 -3300 -3300 -3300 -3300 -3300 -3300 -3300 -3300 -3300 -3300 -3300 -3300 -3300 -3300 -3300 -3300 -3300 -3300 -3300 -3300 -3300 -3300 -3300 -3300 -3300 -3300 -3300 -3300 -3300 -3300 -3300 -3300 -3300 -3300 -3300 -3300 -3300 -3300 -3300 -3300 -3300 -3300 -3300 -3300 -3300 -3300 -3300 -3300 -3300 -3300 -3300 -3300 -3300 -3300 -3300 -3300 -3300 -3300 -3300 -3300 -3300 -3300 -3300 -3300 -3300 -3300 -3300 -3300 -3300 -3300 -3300 -3300 -3300 -3300 -3300 -3300 -3300 -3300 -3300 -3300 -3300 
-3300 -3300 -3300 -3300 -3300 -3300 -3300 -3300 -3300 -3300 -3300 -3300 -3300 -3300 -3300 -3300 -3300 -3300 -3300 -3300 -3300 -3300 -3300 -3300 -3300 -3300 -3300 -3300 -3300 -3300 -3300 -3300 -3300 -3300 -3300 -3300 -3300 -3300 -3300 -3300 -3300 -3300 -3300 -3300 -3300 -3300 -3300 -3300 -3300 -3300 -3300 -3300 -3300 -3300 -3300 -3300 -3300 -3300 -3300 -3300 -3300 -3300 -3300 -3300 -3300 -3300 -3300 -3300 -3300 -3300 -3300 -3300 -3300 -3300 -3300 -3300 -3300 -3300 -3300 -3300 -3300 -3300 -3300 -3300 -3300 -3300 -3300 -3300 -3300 -3300 -3300 -3300 -3300 -3300 -3300 -3300 -3300 -3300 -3300 -3300 -3300 -3300 -3300 -3300 -3300 -3300 -3300 -3300 -3300 -3300 -3300 -3300 -3300 -3300 -3300 -3300 -3300 -3300 -3300 -3300 
-3300 -3300 -3300 -3300 -3300 -3300 -3300 -3300 -3300 -3300 -3300 -3300 -3300 -3300 -3300 -3300 -3300 -3300 -3300 -3300 -3300 -3300 -3300 -3300 -3300 -3300 -3300 -3300 -3300 -3300 -3300 -3300 -3300 -3300 -3300 -3300 -3300 -3300 -3300 -3300 -3300 -3300 -3300 -3300 -3300 -3300 -3300 -3300 -3300 -3300 -3300 -3300 -3300 -3300 -3300 -3300 -3300 -3300 -3300 -3300 -3300 -3300 -3300 -3300 -3300 -3300 -3300 -3300 -3300 -3300 -3300 -3300 -3300 -3300 -3300 -3300 -3300 -3300 -3300 -3300 -3300 -3300 -3300 -3300 -3300 -3300 -3300 -3300 -3300 -3300 -3300 -3300 -3300 -3300 -3300 -3300 -3300 -3300 -3300 -3300 -3300 -3300 -3300 -3300 -3300 -3300 -3300 -3300 -3300 -3300 -3300 -3300 -3300 -3300 -3300 -3300 -3300 -3300 -3300 -3300 
-3300 -3300 -3300 -3300 -3300 -3300 -3300 -3300 -3300 -3300 -3300 -3300 -3300 -3300 -3300 -3300 -3300 -3300 -3300 -3300 -3300 -3300 -3300 -3300 -3300 -3300 -3300 -3300 -3300 -3300 -3300 -3300 -3300 -3300 -3300 -3300 -3300 -3300 -3300 -3300 -3300 -3300 -3300 -3300 -3300 -3300 -3300 -3300 -3300 -3300 -3300 -3300 -3300 -3300 -3300 -3300 -3300 -3300 -3300 -3300 -3300 -3300 -3300 -3300 -3300 -3300 -3300 -3300 -3300 -3300 -3300 -3300 -3300 -3300 -3300 -3300 -3300 -3300 -3300 -3300 -3300 -3300 -3300 -3300 -3300 -3300 -3300 -3300 -3300 -3300 -3300 -3300 -3300 -3300 -3300 -3300 -3300 -3300 -3300 -3300 -3300 -3300 -3300 -3300 -3300 -3300 -3300 -3300 -3300 -3300 -3300 -3300 -3300 -3300 -3300 -3300 -3300 -3300 -3300 -3300 
3229.1016 3243.704 3258.609 3273.0103 3287.21 3299.8992 -3284.2896 -3270.4924 -3256.7961 -3243.0999 -3229.5044 -3216.0095 -3202.6152 -3189.3218 -3176.1292 -3163.1377 -3150.1465 -3137.2559 -3124.5667 -3111.978 -2438.745 -420.25452 2791.0217 3299.8992 3299.8992 3299.8992 3299.8992 3299.8992 3299.8992 3299.8992 3299.8992 3299.8992 3299.8992 3299.8992 3299.8992 3299.8992 2384.3628 -43.707275 -2430.5876 -3286.8071 -3272.3052 -3257.904 -3243.9055 -3230.0078 -3216.3115 -3202.6152 -3188.8184 -3175.525 -3162.2314 -3149.0386 -3136.0474 -3122.9553 -3110.1653 -3097.476 -3084.9883 -3072.702 -3060.617 -3048.7334 -3036.8499 -2781.3538 -1950.6134 -646.4447 1666.0126 3299.8992 3299.8992 3299.8992 3299.8992 3299.8992 3299.8992 3299.8992 3299.8992 3299.8992 3299.8992 3299.8992 3299.8992 3299.8992 3299.8992 3038.7634 1693.9087 210.68115 -1156.5308 -3062.4297 -3219.2322 -3205.133 -3191.336 -3177.6396 -3164.2456 -3150.5493 -3137.3564 -3124.1638 -3111.1724 -3098.1812 -3085.391 -3072.8027 -3060.214 -3047.525 -3035.44 -2254.0466 -429.9225 1391.684 2885.4858 3299.8992 3299.8992 3299.8992 3299.8992 3299.8992 3299.8992 3299.8992 3299.8992 3299.8992 3299.8992 3299.8992 3299.8992 3299.8992 3299.8992 3299.8992 3299.8992 2283.1511 199.30115 -1708.612 
-3300 -3300 -3300 -3300 -3300 -3300 -3300 -3300 -3300 -3300 -3300 -3300 -3300 -3300 -3300 -3300 -3300 -3300 -3300 -3300 -3300 -3300 -3300 -3300 -3300 -3300 -3300 -3300 -3300 -3300 -3300 -3300 -3300 -3300 -3300 -3300 -3300 -3300 -3300 -3300 -3300 -3300 -3300 -3300 -3300 -3300 -3300 -3300 -3300 -3300 -3300 -3300 -3300 -3300 -3300 -3300 -3300 -3300 -3300 -3300 -3300 -3300 -3300 -3300 -3300 -3300 -3300 -3300 -3300 -3300 -3300 -3300 -3300 -3300 -3300 -3300 -3300 -3300 -3300 -3300 -3300 -3300 -3300 -3300 -3300 -3300 -3300 -3300 -3300 -3300 -3300 -3300 -3300 -3300 -3300 -3300 -3300 -3300 -3300 -3300 -3300 -3300 -3300 -3300 -3300 -3300 -3300 -3300 -3300 -3300 -3300 -3300 -3300 -3300 -3300 -3300 -3300 -3300 -3300 -3300 
-3300 -3300 -3300 -3300 -3300 -3300 -3300 -3300 -3300 -3300 -3300 -3300 -3300 -3300 -3300 -3300 -3300 -3300 -3300 -3300 -3300 -3300 -3300 -3300 -3300 -3300 -3300 -3300 -3300 -3300 -3300 -3300 -3300 -3300 -3300 -3300 -3300 -3300 -3300 -3300 -3300 -3300 -3300 -3300 -3300 -3300 -3300 -3300 -3300 -3300 -3300 -3300 -3300 -3300 -3300 -3300 -3300 -3300 -3300 -3300 -3300 -3300 -3300 -3300 -3300 -3300 -3300 -3300 -3300 -3300 -3300 -3300 -3300 -3300 -3300 -3300 -3300 -3300 -3300 -3300 -3300 -3300 -3300 -3300 -3300 -3300 -3300 -3300 -3300 -3300 -3300 -3300 -3300 -3300 -3300 -3300 -3300 -3300 -3300 -3300 -3300 -3300 -3300 -3300 -3300 -3300 -3300 -3300 -3300 -3300 -3300 -3300 -3300 -3300 -3300 -3300 -3300 -3300 -3300 -3300 
-3300 -3300 -3300 -3300 -3300 -3300 -3300 -3300 -3300 -3300 -3300 -3300 -3300 -3300 -3300 -3300 -3300 -3300 -3300 -3300 -3300 -3300 -3300 -3300 -3300 -3300 -3300 -3300 -3300 -3300 -3300 -3300 -3300 -3300 -3300 -3300 -3300 -3300 -3300 -3300 -3300 -3300 -3300 -3300 -3300 -3300 -3300 -3300 -3300 -3300 -3300 -3300 -3300 -3300 -3300 -3300 -3300 -3300 -3300 -3300 -3300 -3300 -3300 -3300 -3300 -3300 -3300 -3300 -3300 -3300 -3300 -3300 -3300 -3300 -3300 -3300 -3300 -3300 -3300 -3300 -3300 -3300 -3300 -3300 -3300 -3300 -3300 -3300 -3300 -3300 -3300 -3300 -3300 -3300 -3300 -3300 -3300 -3300 -3300 -3300 -3300 -3300 -3300 -3300 -3300 -3300 -3300 -3300 -3300 -3300 -3300 -3300 -3300 -3300 -3300 -3300 -3300 -3300 -3300 -3300 

-3300 -3300 -3300 -3300 -3300 -3300 -3300 -3300 -3300 -3300 -3300 -3300 -3300 -3300 -3300 -3300 -3300 -3300 -3300 -3300 -3300 -3300 -3300 -3300 -3300 -3300 -3300 -3300 -3300 -3300 -3300 -3300 -3300 -3300 -3300 -3300 -3300 -3300 -3300 -3300 -3300 -3300 -3300 -3300 -3300 -3300 -3300 -3300 -3300 -3300 -3300 -3300 -3300 -3300 -3300 -3300 -3300 -3300 -3300 -3300 -3300 -3300 -3300 -3300 -3300 -3300 -3300 -3300 -3300 -3300 -3300 -3300 -3300 -3300 -3300 -3300 -3300 -3300 -3300 -3300 -3300 -3300 -3300 -3300 -3300 -3300 -3300 -3300 -3300 -3300 -3300 -3300 -3300 -3300 -3300 -3300 -3300 -3300 -3300 -3300 
-3300 -3300 -3300 -3300 -3300 -3300 -3300 -3300 -3300 -3300 -3300 -3300 -3300 -3300 -3300 -3300 -3300 -3300 -3300 -3300 -3300 -3300 -3300 -3300 -3300 -3300 -3300 -3300 -3300 -3300 -3300 -3300 -3300 -3300 -3300 -3300 -3300 -3300 -3300 -3300 -3300 -3300 -3300 -3300 -3300 -3300 -3300 -3300 -3300 -3300 -3300 -3300 -3300 -3300 -3300 -3300 -3300 -3300 -3300 -3300 -3300 -3300 -3300 -3300 -3300 -3300 -3300 -3300 -3300 -3300 -3300 -3300 -3300 -3300 -3300 -3300 -3300 -3300 -3300 -3300 -3300 -3300 -3300 -3300 -3300 -3300 -3300 -3300 -3300 -3300 -3300 -3300 -3300 -3300 -3300 -3300 -3300 -3300 -3300 -3300 
-3300 -3300 -3300 -3300 -3300 -3300 -3300 -3300 -3300 -3300 -3300 -3300 -3300 -3300 -3300 -3300 -3300 -3300 -3300 -3300 -3300 -3300 -3300 -3300 -3300 -3300 -3300 -3300 -3300 -3300 -3300 -3300 -3300 -3300 -3300 -3300 -3300 -3300 -3300 -3300 -3300 -3300 -3300 -3300 -3300 -3300 -3300 -3300 -3300 -3300 -3300 -3300 -3300 -3300 -3300 -3300 -3300 -3300 -3300 -3300 -3300 -3300 -3300 -3300 -3300 -3300 -3300 -3300 -3300 -3300 -3300 -3300 -3300 -3300 -3300 -3300 -3300 -3300 -3300 -3300 -3300 -3300 -3300 -3300 -3300 -3300 -3300 -3300 -3300 -3300 -3300 -3300 -3300 -3300 -3300 -3300 -3300 -3300 -3300 -3300 
-3300 -3300 -3300 -3300 -3300 -3300 -3300 -3300 -3300 -3300 -3300 -3300 -3300 -3300 -3300 -3300 -3300 -3300 -3300 -3300 -3300 -3300 -3300 -3300 -3300 -3300 -3300 -3300 -3300 -3300 -3300 -3300 -3300 -3300 -3300 -3300 -3300 -3300 -3300 -3300 -3300 -3300 -3300 -3300 -3300 -3300 -3300 -3300 -3300 -3300 -3300 -3300 -3300 -3300 -3300 -3300 -3300 -3300 -3300 -3300 -3300 -3300 -3300 -3300 -3300 -3300 -3300 -3300 -3300 -3300 -3300 -3300 -3300 -3300 -3300 -3300 -3300 -3300 -3300 -3300 -3300 -3300 -3300 -3300 -3300 -3300 -3300 -3300 -3300 -3300 -3300 -3300 -3300 -3300 -3300 -3300 -3300 -3300 -3300 -3300 
-3264.2485 -3251.7607 -3237.3596 -3223.2605 -3209.3628 -3195.6665 -3182.2722 -3168.4753 -3155.2825 -3142.0898 -3128.897 -3115.9058 -3102.9143 -3090.225 -3077.536 -3065.048 -3052.5603 -2921.7407 -1197.821 914.2273 2776.5198 3299.8992 3299.8992 3299.8992 3299.8992 3299.8992 3299.8992 3299.8992 3299.8992 3299.8992 3299.8992 3299.8992 3299.8992 3299.8992 3299.8992 3299.8992 3299.8992 3299.8992 3063.4368 1796.0266 415.62195 -1529.1504 3299.8992 -3284.491 -3270.0896 -3255.789 -3241.9922 -3227.7922 -3214.096 -3200.5005 -3186.9048 -3173.6113 -3160.3179 -3147.0244 -3134.0332 -3121.0417 -2532.1013 -288.0249 2002.5787 3299.8992 3299.8992 3299.8992 3299.8992 3299.8992 3299.8992 3299.8992 3299.8992 3299.8992 3299.8992 3299.8992 3299.8992 3299.8992 3293.1519 3279.2542 3265.3564 3251.4587 3237.6616 3223.764 3204.428 2235.315 622.7783 -1555.5359 3211.0747 3226.0803 3240.8843 3255.487 3269.989 3284.2896 3298.1873 -3287.7136 -3273.816 -3260.0188 -3246.3225 -3232.727 -3219.1313 -3205.838 -3192.343 -1639.1235 494.0735 2393.527 
-3300 -3300 -3300 -3300 -3300 -3300 -3300 -3300 -3300 -3300 -3300 -3300 -3300 -3300 -3300 -3300 -3300 -3300 -3300 -3300 -3300 -3300 -3300 -3300 -3300 -3300 -3300 -3300 -3300 -3300 -3300 -3300 -3300 -3300 -3300 -3300 -3300 -3300 -3300 -3300 -3300 -3300 -3300 -3300 -3300 -3300 -3300 -3300 -3300 -3300 -3300 -3300 -3300 -3300 -3300 -3300 -3300 -3300 -3300 -3300 -3300 -3300 -3300 -3300 -3300 -3300 -3300 -3300 -3300 -3300 -3300 -3300 -3300 -3300 -3300 -3300 -3300 -3300 -3300 -3300 -3300 -3300 -3300 -3300 -3300 -3300 -3300 -3300 -3300 -3300 -3300 -3300 -3300 -3300 -3300 -3300 -3300 -3300 -3300 -3300 
-3300 -3300 -3300 -3300 -3300 -3300 -3300 -3300 -3300 -3300 -3300 -3300 -3300 -3300 -3300 -3300 -3300 -3300 -3300 -3300 -3300 -3300 -3300 -3300 -3300 -3300 -3300 -3300 -3300 -3300 -3300 -3300 -3300 -3300 -3300 -3300 -3300 -3300 -3300 -3300 -3300 -3300 -3300 -3300 -3300 -3300 -3300 -3300 -3300 -3300 -3300 -3300 -3300 -3300 -3300 -3300 -3300 -3300 -3300 -3300 -3300 -3300 -3300 -3300 -3300 -3300 -3300 -3300 -3300 -3300 -3300 -3300 -3300 -3300 -3300 -3300 -3300 -3300 -3300 -3300 -3300 -3300 -3300 -3300 -3300 -3300 -3300 -3300 -3300 -3300 -3300 -3300 -3300 -3300 -3300 -3300 -3300 -3300 -3300 -3300 
-3300 -3300 -3300 -3300 -3300 -3300 -3300 -3300 -3300 -3300 -3300 -3300 -3300 -3300 -3300 -3300 -3300 -3300 -3300 -3300 -3300 -3300 -3300 -3300 -3300 -3300 -3300 -3300 -3300 -3300 -3300 -3300 -3300 -3300 -3300 -3300 -3300 -3300 -3300 -3300 -3300 -3300 -3300 -3300 -3300 -3300 -3300 -3300 -3300 -3300 -3300 -3300 -3300 -3300 -3300 -3300 -3300 -3300 -3300 -3300 -3300 -3300 -3300 -3300 -3300 -3300 -3300 -3300 -3300 -3300 -3300 -3300 -3300 -3300 -3300 -3300 -3300 -3300 -3300 -3300 -3300 -3300 -3300 -3300 -3300 -3300 -3300 -3300 -3300 -3300 -3300 -3300 -3300 -3300 -3300 -3300 -3300 -3300 -3300 -3300 

-3300 -3300 -3300 -3300 -3300 -3300 -3300 -3300 -3300 -3300 -3300 -3300 -3300 -3300 -3300 -3300 -3300 -3300 -3300 -3300 -3300 -3300 -3300 -3300 -3300 -3300 -3300 -3300 -3300 -3300 -3300 -3300 -3300 -3300 -3300 -3300 -3300 -3300 -3300 -3300 -3300 -3300 -3300 -3300 -3300 -3300 -3300 -3300 -3300 -3300 -3300 -3300 -3300 -3300 -3300 -3300 -3300 -3300 -3300 -3300 -3300 -3300 -3300 -3300 -3300 -3300 -3300 -3300 -3300 -3300 -3300 -3300 -3300 -3300 -3300 -3300 -3300 -3300 -3300 -3300 -3300 -3300 -3300 -3300 -3300 -3300 -3300 -3300 -3300 -3300 -3300 -3300 -3300 -3300 -3300 -3300 -3300 -3300 -3300 -3300 
-3300 -3300 -3300 -3300 -3300 -3300 -3300 -3300 -3300 -3300 -3300 -3300 -3300 -3300 -3300 -3300 -3300 -3300 -3300 -3300 -3300 -3300 -3300 -3300 -3300 -3300 -3300 -3300 -3300 -3300 -3300 -3300 -3300 -3300 -3300 -3300 -3300 -3300 -3300 -3300 -3300 -3300 -3300 -3300 -3300 -3300 -3300 -3300 -3300 -3300 -3300 -3300 -3300 -3300 -3300 -3300 -3300 -3300 -3300 -3300 -3300 -3300 -3300 -3300 -3300 -3300 -3300 -3300 -3300 -3300 -3300 -3300 -3300 -3300 -3300 -3300 -3300 -3300 -3300 -3300 -3300 -3300 -3300 -3300 -3300 -3300 -3300 -3300 -3300 -3300 -3300 -3300 -3300 -3300 -3300 -3300 -3300 -3300 -3300 -3300 
-3300 -3300 -3300 -3300 -3300 -3300 -3300 -3300 -3300 -3300 -3300 -3300 -3300 -3300 -3300 -3300 -3300 -3300 -3300 -3300 -3300 -3300 -3300 -3300 -3300 -3300 -3300 -3300 -3300 -3300 -3300 -3300 -3300 -3300 -3300 -3300 -3300 -3300 -3300 -3300 -3300 -3300 -3300 -3300 -3300 -3300 -3300 -3300 -3300 -3300 -3300 -3300 -3300 -3300 -3300 -3300 -3300 -3300 -3300 -3300 -3300 -3300 -3300 -3300 -3300 -3300 -3300 -3300 -3300 -3300 -3300 -3300 -3300 -3300 -3300 -3300 -3300 -3300 -3300 -3300 -3300 -3300 -3300 -3300 -3300 -3300 -3300 -3300 -3300 -3300 -3300 -3300 -3300 -3300 -3300 -3300 -3300 -3300 -3300 -3300 
-3300 -3300 -3300 -3300 -3300 -3300 -3300 -3300 -3300 -3300 -3300 -3300 -3300 -3300 -3300 -3300 -3300 -3300 -3300 -3300 -3300 -3300 -3300 -3300 -3300 -3300 -3300 -3300 -3300 -3300 -3300 -3300 -3300 -3300 -3300 -3300 -3300 -3300 -3300 -3300 -3300 -3300 -3300 -3300 -3300 -3300 -3300 -3300 -3300 -3300 -3300 -3300 -3300 -3300 -3300 -3300 -3300 -3300 -3300 -3300 -3300 -3300 -3300 -3300 -3300 -3300 -3300 -3300 -3300 -3300 -3300 -3300 -3300 -3300 -3300 -3300 -3300 -3300 -3300 -3300 -3300 -3300 -3300 -3300 -3300 -3300 -3300 -3300 -3300 -3300 -3300 -3300 -3300 -3300 -3300 -3300 -3300 -3300 -3300 -3300 
3299.8992 3299.8992 3299.8992 3299.8992 3299.8992 3299.8992 3299.8992 3298.4893 3284.9944 3271.4995 3257.8032 3244.2078 3230.713 3216.8152 3203.2195 3189.5232 3175.9277 3162.332 2844.397 1461.1725 -285.3058 -2393.4265 3162.332 3177.3376 3192.2424 3206.9458 3221.1455 3235.9497 3250.1494 3264.3494 3278.3477 3292.4468 3299.8992 -3280.0598 -3266.3635 -3252.7678 -3009.2559 -1093.2861 1056.1249 2966.858 3299.8992 3299.8992 3299.8992 3299.8992 3287.1094 3273.6145 3259.7168 3245.7183 3232.4248 3219.1313 3205.838 3192.5444 3179.1504 3165.6555 3152.1606 3138.7664 3125.473 3112.1794 2845.6055 1508.5052 -320.6543 -2573.291 3113.1865 3128.4941 3143.4998 3158.3037 3172.8057 3187.6099 3202.011 3216.211 3230.5115 3244.7112 3258.7097 3272.6074 3286.5051 3299.8992 -3286.0015 -1881.427 124.97864 1853.5309 3299.8992 3293.756 3280.3618 3266.9678 3253.775 3240.4814 3227.0874 3212.9883 3199.7954 3186.8042 3173.6113 3160.3179 3146.9238 3133.6304 3120.337 3107.144 3094.052 3081.3628 3068.875 3056.488 
-3300 -3300 -3300 -3300 -3300 -3300 -3300 -3300 -3300 -3300 -3300 -3300 -3300 -3300 -3300 -3300 -3300 -3300 -3300 -3300 -3300 -3300 -3300 -3300 -3300 -3300 -3300 -3300 -3300 -3300 -3300 -3300 -3300 -3300 -3300 -3300 -3300 -3300 -3300 -3300 -3300 -3300 -3300 -3300 -3300 -3300 -3300 -3300 -3300 -3300 -3300 -3300 -3300 -3300 -3300 -3300 -3300 -3300 -3300 -3300 -3300 -3300 -3300 -3300 -3300 -3300 -3300 -3300 -3300 -3300 -3300 -3300 -3300 -3300 -3300 -3300 -3300 -3300 -3300 -3300 -3300 -3300 -3300 -3300 -3300 -3300 -3300 -3300 -3300 -3300 -3300 -3300 -3300 -3300 -3300 -3300 -3300 -3300 -3300 -3300 
-3300 -3300 -3300 -3300 -3300 -3300 -3300 -3300 -3300 -3300 -3300 -3300 -3300 -3300 -3300 -3300 -3300 -3300 -3300 -3300 -3300 -3300 -3300 -3300 -3300 -3300 -3300 -3300 -3300 -3300 -3300 -3300 -3300 -3300 -3300 -3300 -3300 -3300 -3300 -3300 -3300 -3300 -3300 -3300 -3300 -3300 -3300 -3300 -3300 -3300 -3300 -3300 -3300 -3300 -3300 -3300 -3300 -3300 -3300 -3300 -3300 -3300 -3300 -3300 -3300 -3300 -3300 -3300 -3300 -3300 -3300 -3300 -3300 -3300 -3300 -3300 -3300 -3300 -3300 -3300 -3300 -3300 -3300 -3300 -3300 -3300 -3300 -3300 -3300 -3300 -3300 -3300 -3300 -3300 -3300 -3300 -3300 -3300 -3300 -3300 
-3300 -3300 -3300 -3300 -3300 -3300 -3300 -3300 -3300 -3300 -3300 -3300 -3300 -3300 -3300 -3300 -3300 -3300 -3300 -3300 -3300 -3300 -3300 -3300 -3300 -3300 -3300 -3300 -3300 -3300 -3300 -3300 -3300 -3300 -3300 -3300 -3300 -3300 -3300 -3300 -3300 -3300 -3300 -3300 -3300 -3300 -3300 -3300 -3300 -3300 -3300 -3300 -3300 -3300 -3300 -3300 -3300 -3300 -3300 -3300 -3300 -3300 -3300 -3300 -3300 -3300 -3300 -3300 -3300 -3300 -3300 -3300 -3300 -3300 -3300 -3300 -3300 -3300 -3300 -3300 -3300 -3300 -3300 -3300 -3300 -3300 -3300 -3300 -3300 -3300 -3300 -3300 -3300 -3300 -3300 -3300 -3300 -3300 -3300 -3300 

-3300 -3300 -3300 -3300 -3300 -3300 -3300 -3300 -3300 -3300 -3300 -3300 -3300 -3300 -3300 -3300 -3300 -3300 -3300 -3300 -3300 -3300 -3300 -3300 -3300 -3300 -3300 -3300 -3300 -3300 -3300 -3300 -3300 -3300 -3300 -3300 -3300 -3300 -3300 -3300 -3300 -3300 -3300 -3300 -3300 -3300 -3300 -3300 -3300 -3300 -3300 -3300 -3300 -3300 -3300 -3300 -3300 -3300 -3300 -3300 -3300 -3300 -3300 -3300 -3300 -3300 -3300 -3300 -3300 -3300 -3300 -3300 -3300 -3300 -3300 -3300 -3300 -3300 -3300 -3300 -3300 -3300 -3300 -3300 -3300 -3300 -3300 -3300 -3300 -3300 -3300 -3300 -3300 -3300 -3300 -3300 -3300 -3300 -3300 -3300 
-3300 -3300 -3300 -3300 -3300 -3300 -3300 -3300 -3300 -3300 -3300 -3300 -3300 -3300 -3300 -3300 -3300 -3300 -3300 -3300 -3300 -3300 -3300 -3300 -3300 -3300 -3300 -3300 -3300 -3300 -3300 -3300 -3300 -3300 -3300 -3300 -3300 -3300 -3300 -3300 -3300 -3300 -3300 -3300 -3300 -3300 -3300 -3300 -3300 -3300 -3300 -3300 -3300 -3300 -3300 -3300 -3300 -3300 -3300 -3300 -3300 -3300 -3300 -3300 -3300 -3300 -3300 -3300 -3300 -3300 -3300 -3300 -3300 -3300 -3300 -3300 -3300 -3300 -3300 -3300 -3300 -3300 -3300 -3300 -3300 -3300 -3300 -3300 -3300 -3300 -3300 -3300 -3300 -3300 -3300 -3300 -3300 -3300 -3300 -3300 
-3300 -3300 -3300 -3300 -3300 -3300 -3300 -3300 -3300 -3300 -3300 -3300 -3300 -3300 -3300 -3300 -3300 -3300 -3300 -3300 -3300 -3300 -3300 -3300 -3300 -3300 -3300 -3300 -3300 -3300 -3300 -3300 -3300 -3300 -3300 -3300 -3300 -3300 -3300 -3300 -3300 -3300 -3300 -3300 -3300 -3300 -3300 -3300 -3300 -3300 -3300 -3300 -3300 -3300 -3300 -3300 -3300 -3300 -3300 -3300 -3300 -3300 -3300 -3300 -3300 -3300 -3300 -3300 -3300 -3300 -3300 -3300 -3300 -3300 -3300 -3300 -3300 -3300 -3300 -3300 -3300 -3300 -3300 -3300 -3300 -3300 -3300 -3300 -3300 -3300 -3300 -3300 -3300 -3300 -3300 -3300 -3300 -3300 -3300 -3300 
-3300 -3300 -3300 -3300 -3300 -3300 -3300 -3300 -3300 -3300 -3300 -3300 -3300 -3300 -3300 -3300 -3300 -3300 -3300 -3300 -3300 -3300 -3300 -3300 -3300 -3300 -3300 -3300 -3300 -3300 -3300 -3300 -3300 -3300 -3300 -3300 -3300 -3300 -3300 -3300 -3300 -3300 -3300 -3300 -3300 -3300 -3300 -3300 -3300 -3300 -3300 -3300 -3300 -3300 -3300 -3300 -3300 -3300 -3300 -3300 -3300 -3300 -3300 -3300 -3300 -3300 -3300 -3300 -3300 -3300 -3300 -3300 -3300 -3300 -3300 -3300 -3300 -3300 -3300 -3300 -3300 -3300 -3300 -3300 -3300 -3300 -3300 -3300 -3300 -3300 -3300 -3300 -3300 -3300 -3300 -3300 -3300 -3300 -3300 -3300 
3040.5762 1275.4669 -2963.9373 3057.1929 3072.8027 3088.0095 3102.8137 3118.0205 3132.6233 3147.4272 3161.8286 3176.2297 3190.4297 3204.6294 3218.8293 3232.727 3246.7253 3260.5225 3274.3193 3288.0156 3299.8992 -3157.8003 -972.3358 1714.151 3299.8992 3291.5405 3277.3406 3263.2415 3249.948 3236.6545 3223.059 3209.4634 3195.5657 3181.668 2527.771 -229.81567 -3155.6853 3188.1133 3203.018 3217.7214 3232.3242 3246.9268 3261.1267 3275.125 3289.325 3299.8992 -3282.6782 -3269.1833 -3255.789 -3242.395 -3229.1016 -3216.0095 -3202.9175 -3189.926 -3177.1362 -3164.3462 -3128.3936 -1552.414 465.57312 2118.4937 3299.8992 3299.8992 3299.8992 3299.8992 3299.8992 3299.8992 3299.8992 3299.8992 3299.8992 3299.8992 3296.475 3282.5774 3268.6797 3254.48 3240.5823 3226.4832 3212.4846 2681.25 806.2683 -812.5122 -2772.6929 3218.0237 3232.727 3247.4304 3261.8315 3276.132 3290.5334 3299.8992 -3281.6711 -3267.7734 -3253.9763 -3240.4814 -3226.886 -3213.4917 -3200.0977 -3186.9048 -3173.8127 -3160.8215 -3013.5864 -2069.2473 
-3300 -3300 -3300 -3300 -3300 -3300 -3300 -3300 -3300 -3300 -3300 -3300 -3300 -3300 -3300 -3300 -3300 -3300 -3300 -3300 -3300 -3300 -3300 -3300 -3300 -3300 -3300 -3300 -3300 -3300 -3300 -3300 -3300 -3300 -3300 -3300 -3300 -3300 -3300 -3300 -3300 -3300 -3300 -3300 -3300 -3300 -3300 -3300 -3300 -3300 -3300 -3300 -3300 -3300 -3300 -3300 -3300 -3300 -3300 -3300 -3300 -3300 -3300 -3300 -3300 -3300 -3300 -3300 -3300 -3300 -3300 -3300 -3300 -3300 -3300 -3300 -3300 -3300 -3300 -3300 -3300 -3300 -3300 -3300 -3300 -3300 -3300 -3300 -3300 -3300 -3300 -3300 -3300 -3300 -3300 -3300 -3300 -3300 -3300 -3300 
-3300 -3300 -3300 -3300 -3300 -3300 -3300 -3300 -3300 -3300 -3300 -3300 -3300 -3300 -3300 -3300 -3300 -3300 -3300 -3300 -3300 -3300 -3300 -3300 -3300 -3300 -3300 -3300 -3300 -3300 -3300 -3300 -3300 -3300 -3300 -3300 -3300 -3300 -3300 -3300 -3300 -3300 -3300 -3300 -3300 -3300 -3300 -3300 -3300 -3300 -3300 -3300 -3300 -3300 -3300 -3300 -3300 -3300 -3300 -3300 -3300 -3300 -3300 -3300 -3300 -3300 -3300 -3300 -3300 -3300 -3300 -3300 -3300 -3300 -3300 -3300 -3300 -3300 -3300 -3300 -3300 -3300 -3300 -3300 -3300 -3300 -3300 -3300 -3300 -3300 -3300 -3300 -3300 -3300 -3300 -3300 -3300 -3300 -3300 -3300 
-3300 -3300 -3300 -3300 -3300 -3300 -3300 -3300 -3300 -3300 -3300 -3300 -3300 -3300 -3300 -3300 -3300 -3300 -3300 -3300 -3300 -3300 -3300 -3300 -3300 -3300 -3300 -3300 -3300 -3300 -3300 -3300 -3300 -3300 -3300 -3300 -3300 -3300 -3300 -3300 -3300 -3300 -3300 -3300 -3300 -3300 -3300 -3300 -3300 -3300 -3300 -3300 -3300 -3300 -3300 -3300 -3300 -3300 -3300 -3300 -3300 -3300 -3300 -3300 -3300 -3300 -3300 -3300 -3300 -3300 -3300 -3300 -3300 -3300 -3300 -3300 -3300 -3300 -3300 -3300 -3300 -3300 -3300 -3300 -3300 -3300 -3300 -3300 -3300 -3300 -3300 -3300 -3300 -3300 -3300 -3300 -3300 -3300 -3300 -3300 

-3300 -3300 -3300 -3300 -3300 -3300 -3300 -3300 -3300 -3300 -3300 -3300 -3300 -3300 -3300 -3300 -3300 -3300 -3300 -3300 -3300 -3300 -3300 -3300 -3300 -3300 -3300 -3300 -3300 -3300 -3300 -3300 -3300 -3300 -3300 -3300 -3300 -3300 -3300 -3300 -3300 -3300 -3300 -3300 -3300 -3300 -3300 -3300 -3300 -3300 -3300 -3300 -3300 -3300 -3300 -3300 -3300 -3300 -3300 -3300 -3300 -3300 -3300 -3300 -3300 -3300 -3300 -3300 -3300 -3300 -3300 -3300 -3300 -3300 -3300 -3300 -3300 -3300 -3300 -3300 -3300 -3300 -3300 -3300 -3300 -3300 -3300 -3300 -3300 -3300 -3300 -3300 -3300 -3300 -3300 -3300 -3300 -3300 -3300 -3300 
-3300 -3300 -3300 -3300 -3300 -3300 -3300 -3300 -3300 -3300 -3300 -3300 -3300 -3300 -3300 -3300 -3300 -3300 -3300 -3300 -3300 -3300 -3300 -3300 -3300 -3300 -3300 -3300 -3300 -3300 -3300 -3300 -3300 -3300 -3300 -3300 -3300 -3300 -3300 -3300 -3300 -3300 -3300 -3300 -3300 -3300 -3300 -3300 -3300 -3300 -3300 -3300 -3300 -3300 -3300 -3300 -3300 -3300 -3300 -3300 -3300 -3300 -3300 -3300 -3300 -3300 -3300 -3300 -3300 -3300 -3300 -3300 -3300 -3300 -3300 -3300 -3300 -3300 -3300 -3300 -3300 -3300 -3300 -3300 -3300 -3300 -3300 -3300 -3300 -3300 -3300 -3300 -3300 -3300 -3300 -3300 -3300 -3300 -3300 -3300 
-3300 -3300 -3300 -3300 -3300 -3300 -3300 -3300 -3300 -3300 -3300 -3300 -3300 -3300 -3300 -3300 -3300 -3300 -3300 -3300 -3300 -3300 -3300 -3300 -3300 -3300 -3300 -3300 -3300 -3300 -3300 -3300 -3300 -3300 -3300 -3300 -3300 -3300 -3300 -3300 -3300 -3300 -3300 -3300 -3300 -3300 -3300 -3300 -3300 -3300 -3300 -3300 -3300 -3300 -3300 -3300 -3300 -3300 -3300 -3300 -3300 -3300 -3300 -3300 -3300 -3300 -3300 -3300 -3300 -3300 -3300 -3300 -3300 -3300 -3300 -3300 -3300 -3300 -3300 -3300 -3300 -3300 -3300 -3300 -3300 -3300 -3300 -3300 -3300 -3300 -3300 -3300 -3300 -3300 -3300 -3300 -3300 -3300 -3300 -3300 
-3300 -3300 -3300 -3300 -3300 -3300 -3300 -3300 -3300 -3300 -3300 -3300 -3300 -3300 -3300 -3300 -3300 -3300 -3300 -3300 -3300 -3300 -3300 -3300 -3300 -3300 -3300 -3300 -3300 -3300 -3300 -3300 -3300 -3300 -3300 -3300 -3300 -3300 -3300 -3300 -3300 -3300 -3300 -3300 -3300 -3300 -3300 -3300 -3300 -3300 -3300 -3300 -3300 -3300 -3300 -3300 -3300 -3300 -3300 -3300 -3300 -3300 -3300 -3300 -3300 -3300 -3300 -3300 -3300 -3300 -3300 -3300 -3300 -3300 -3300 -3300 -3300 -3300 -3300 -3300 -3300 -3300 -3300 -3300 -3300 -3300 -3300 -3300 -3300 -3300 -3300 -3300 -3300 -3300 -3300 -3300 -3300 -3300 -3300 -3300 
-526.19934 1556.543 3299.8992 3299.8992 3299.8992 3299.8992 3299.8992 3299.8992 3299.8992 3299.8992 3299.8992 3299.8992 3299.8992 3292.6482 3278.3477 3258.7097 1980.3223 54.0802 -1739.7308 -3116.4092 3280.2612 3294.9646 -3290.9363 -3276.7363 -3262.738 -3248.8403 -3235.144 -3221.1455 -3207.55 -3194.3572 -3180.9631 -3167.7703 -3154.6782 -3141.687 -3128.7964 -3116.1072 -3103.5186 -2847.0154 -1501.5564 -191.84875 1571.6492 3299.8992 3299.8992 3299.8992 3299.8992 3299.8992 3299.8992 3299.8992 3299.8992 3299.8992 3299.8992 3299.8992 3299.8992 3299.8992 3299.8992 3299.8992 3282.376 2406.4177 1028.0273 -76.94092 -1446.167 -3172.2014 3296.576 -3288.922 -3274.7222 -3260.623 -3246.8262 -3232.6262 -3219.0308 -3205.435 -3191.8396 -3178.6467 -3165.3533 -3152.2612 -3139.0686 -3123.5596 -1870.6512 -223.47107 1349.8901 2586.786 3299.8992 3299.8992 3299.8992 3299.8992 3299.8992 3299.8992 3299.8992 3299.8992 3299.8992 3299.8992 3299.8992 3299.8992 3290.0298 3276.0315 3262.033 3248.0347 3234.2375 3219.2322 2882.3638 2095.935 
-3300 -3300 -3300 -3300 -3300 -3300 -3300 -3300 -3300 -3300 -3300 -3300 -3300 -3300 -3300 -3300 -3300 -3300 -3300 -3300 -3300 -3300 -3300 -3300 -3300 -3300 -3300 -3300 -3300 -3300 -3300 -3300 -3300 -3300 -3300 -3300 -3300 -3300 -3300 -3300 -3300 -3300 -3300 -3300 -3300 -3300 -3300 -3300 -3300 -3300 -3300 -3300 -3300 -3300 -3300 -3300 -3300 -3300 -3300 -3300 -3300 -3300 -3300 -3300 -3300 -3300 -3300 -3300 -3300 -3300 -3300 -3300 -3300 -3300 -3300 -3300 -3300 -3300 -3300 -3300 -3300 -3300 -3300 -3300 -3300 -3300 -3300 -3300 -3300 -3300 -3300 -3300 -3300 -3300 -3300 -3300 -3300 -3300 -3300 -3300 
-3300 -3300 -3300 -3300 -3300 -3300 -3300 -3300 -3300 -3300 -3300 -3300 -3300 -3300 -3300 -3300 -3300 -3300 -3300 -3300 -3300 -3300 -3300 -3300 -3300 -3300 -3300 -3300 -3300 -3300 -3300 -3300 -3300 -3300 -3300 -3300 -3300 -3300 -3300 -3300 -3300 -3300 -3300 -3300 -3300 -3300 -3300 -3300 -3300 -3300 -3300 -3300 -3300 -3300 -3300 -3300 -3300 -3300 -3300 -3300 -3300 -3300 -3300 -3300 -3300 -3300 -3300 -3300 -3300 -3300 -3300 -3300 -3300 -3300 -3300 -3300 -3300 -3300 -3300 -3300 -3300 -3300 -3300 -3300 -3300 -3300 -3300 -3300 -3300 -3300 -3300 -3300 -3300 -3300 -3300 -3300 -3300 -3300 -3300 -3300 
